jMRUI Data Textfile

Filename: Export_to_jmrui.txt

PointsInDataset: 2048
DatasetsInFile: 1
SamplingInterval: 0.250000
ZeroOrderPhase: 0E0
BeginTime: 0E0
TransmitterFrequency: 1.2326E8
MagneticField: 2.8936E0
TypeOfNucleus:  
NameOfPatient:  
DateOfExperiment:  
Spectrometer:  
AdditionalInfo: 
SignalNames:  


Signal and FFT
sig(real)	sig(imag)	fft(real)	fft(imag)
Signal 1 out of 1 in file
3.7040E-06	1.0040E-06	-1.0971E-06	1.1712E-06
3.6578E-06	-6.4575E-07	-5.5804E-07	1.7165E-06
2.8387E-06	-2.0133E-06	3.4165E-07	1.9495E-06
1.6410E-06	-2.6681E-06	3.3586E-07	1.2860E-06
-8.3272E-08	-2.7722E-06	1.3459E-07	1.6322E-06
-1.0899E-06	-1.9602E-06	4.3488E-07	1.9725E-06
-1.7236E-06	-9.0599E-07	1.0296E-06	1.5107E-06
-1.3250E-06	1.5993E-07	3.1942E-07	1.4735E-06
-7.1332E-07	7.7422E-07	9.1245E-07	1.6355E-06
2.1358E-07	8.2081E-07	1.7637E-07	1.6830E-06
6.5271E-07	4.9179E-07	1.3589E-06	2.1560E-06
8.9944E-07	-1.2373E-07	5.9191E-07	1.3309E-06
6.2362E-07	-5.6412E-07	1.3720E-06	2.4047E-06
3.4760E-07	-8.3675E-07	1.4124E-06	1.0614E-06
-1.6407E-07	-8.5477E-07	1.1501E-06	1.5586E-06
-3.9212E-07	-7.3404E-07	7.6306E-07	9.8125E-07
-5.7257E-07	-4.7934E-07	6.9533E-07	2.3041E-06
-4.7078E-07	-2.9068E-07	1.8912E-06	1.5355E-06
-4.4626E-07	-1.3822E-07	7.1602E-07	9.0596E-07
-3.3497E-07	-5.5228E-08	6.1545E-07	2.5711E-06
-4.7354E-07	8.3043E-09	2.6127E-06	1.6740E-06
-5.1648E-07	1.4702E-07	7.1379E-07	7.0241E-07
-5.4731E-07	2.9292E-07	1.5955E-06	2.0355E-06
-3.6895E-07	4.2376E-07	1.0340E-06	8.0264E-07
-2.3428E-07	4.1057E-07	1.3907E-06	2.1734E-06
-1.4722E-08	3.5029E-07	1.7026E-06	6.7769E-07
1.5650E-07	1.6872E-07	7.7947E-07	1.0795E-06
2.0461E-07	-1.3739E-08	2.6259E-07	1.5100E-06
7.3312E-08	-1.7206E-07	1.5292E-06	2.6609E-06
-9.5156E-08	-1.7123E-07	1.5422E-06	9.5106E-07
-3.2533E-07	-3.9163E-08	1.1726E-06	1.9546E-06
-3.5994E-07	1.8175E-07	1.0566E-06	1.0120E-06
-3.9265E-07	3.9656E-07	8.1176E-07	2.8867E-06
-2.0124E-07	5.4760E-07	2.6132E-06	1.7364E-06
-2.7713E-09	5.6706E-07	1.5993E-06	1.2595E-06
2.3793E-07	4.5907E-07	1.6208E-06	1.2018E-06
3.1710E-07	2.9321E-07	1.3693E-06	1.3408E-06
4.0874E-07	1.2712E-07	9.3292E-07	1.4089E-06
3.2508E-07	4.0113E-08	1.9710E-06	2.5270E-06
3.2547E-07	-1.3636E-08	2.3602E-06	2.2782E-07
2.9625E-07	-4.0023E-08	5.7114E-07	1.0450E-06
3.0132E-07	-1.0085E-07	8.5508E-07	1.0409E-06
2.7187E-07	-1.4852E-07	1.8378E-07	2.6442E-06
2.4513E-07	-2.3793E-07	2.5160E-06	2.3980E-06
9.1449E-08	-2.6473E-07	1.5231E-06	1.1264E-06
-5.9146E-09	-3.0576E-07	1.3566E-06	1.9911E-06
-1.1767E-07	-2.6482E-07	2.2054E-06	1.8266E-06
-1.5090E-07	-1.4956E-07	1.5787E-06	6.8257E-07
-1.6257E-07	-1.4770E-09	7.3598E-07	2.0267E-06
-5.5863E-08	6.8356E-08	2.0430E-06	2.1680E-06
4.6788E-08	1.4948E-07	2.2638E-06	1.3940E-06
1.4591E-07	1.6130E-08	1.0532E-06	6.1472E-07
1.6652E-07	-1.2406E-07	7.7553E-07	3.0121E-06
9.2468E-08	-2.2561E-07	3.0768E-06	1.9076E-06
-9.5614E-08	-2.7950E-07	1.7217E-06	1.4544E-06
-2.0785E-07	-2.1997E-07	2.8184E-06	1.3769E-06
-3.0577E-07	-7.2168E-08	1.4508E-06	4.2306E-07
-2.2855E-07	8.1447E-08	1.3315E-06	1.7141E-06
-8.1552E-08	1.7245E-07	2.0571E-06	1.4570E-06
3.5120E-08	1.7190E-07	1.5357E-06	9.7000E-07
1.2313E-07	6.2773E-08	1.4775E-06	1.9096E-06
1.4821E-07	-3.4846E-09	2.1987E-06	1.3135E-06
8.6844E-08	-1.1684E-07	1.9441E-06	1.5129E-06
5.6403E-09	-1.4138E-07	2.3458E-06	1.8827E-07
-1.1201E-07	-7.3948E-08	-5.4967E-08	9.5624E-07
-1.4262E-07	8.9335E-09	1.8960E-06	2.6955E-06
-1.5601E-07	1.1255E-07	2.2385E-06	7.5355E-07
-8.1994E-08	1.0043E-07	8.7566E-07	1.2144E-06
-5.5757E-09	8.8706E-08	1.7534E-06	2.2466E-06
7.8599E-08	5.5331E-08	2.2239E-06	8.7970E-07
2.9458E-08	-5.0396E-08	9.4221E-07	1.4987E-06
-2.9686E-08	-7.5430E-08	2.0602E-06	1.7698E-06
-7.7618E-08	-6.3936E-08	1.5353E-06	1.4512E-06
-1.5032E-07	5.5708E-08	2.0624E-06	1.6862E-06
-8.8390E-08	1.4801E-07	1.8885E-06	1.5355E-06
-1.2316E-08	1.3773E-07	2.4613E-06	1.1902E-06
2.0677E-08	1.4455E-07	1.5472E-06	1.0304E-06
1.4984E-07	9.3499E-08	2.4703E-06	1.2348E-06
1.2865E-07	9.0289E-10	1.2858E-06	1.3546E-07
7.9980E-08	-5.3218E-08	1.0378E-06	1.7837E-06
-1.1688E-08	-5.5030E-08	2.0902E-06	1.3819E-06
-8.3984E-08	6.5647E-08	1.7236E-06	8.7141E-07
-6.2629E-08	1.2028E-07	1.3918E-06	1.0565E-06
-2.6972E-08	1.4505E-07	1.4005E-06	1.0030E-06
9.8502E-08	1.6883E-07	8.4124E-07	1.4603E-06
1.8334E-07	1.3722E-07	1.6900E-06	2.0029E-06
2.1921E-07	2.4028E-08	1.9147E-06	1.5349E-06
2.0395E-07	-9.4484E-08	2.3111E-06	1.0712E-06
1.1838E-07	-1.6390E-07	1.1232E-06	3.0285E-07
1.4704E-08	-1.8615E-07	6.4085E-07	1.7346E-06
-8.6200E-08	-1.1281E-07	1.5540E-06	1.9369E-06
-1.0944E-07	-1.9609E-09	1.6760E-06	1.6021E-06
-9.0319E-08	1.0401E-07	1.5416E-06	1.7609E-06
3.4729E-08	1.6176E-07	2.1418E-06	1.8231E-06
1.1420E-07	1.2352E-07	2.1070E-06	1.0917E-06
2.0455E-07	6.5690E-08	1.5020E-06	1.1589E-06
1.8148E-07	-7.9182E-08	1.7562E-06	1.7848E-06
1.6301E-07	-1.2806E-07	2.3184E-06	9.9548E-07
8.1740E-08	-1.8391E-07	1.2034E-06	1.0939E-06
6.5075E-09	-1.6048E-07	2.0999E-06	1.7192E-06
-5.3100E-08	-1.6645E-07	2.0094E-06	9.3102E-07
-8.3735E-08	-9.3555E-08	2.1432E-06	8.6925E-07
-1.1541E-07	-7.0825E-08	1.3102E-06	2.8832E-07
-4.9576E-08	-4.0001E-08	1.3117E-06	1.1220E-06
-9.6778E-08	-2.5297E-08	1.0477E-06	4.8188E-07
-9.5392E-08	-8.5915E-09	6.3158E-07	1.5559E-06
-5.9461E-08	1.9079E-08	1.1195E-06	1.3661E-06
-8.4708E-08	8.1790E-08	9.7597E-07	2.1615E-06
-4.0416E-08	6.1568E-08	2.2746E-06	1.4881E-06
-2.2516E-08	8.8044E-08	8.6396E-07	9.6866E-07
6.4988E-08	9.9383E-08	1.6699E-06	2.2258E-06
1.2547E-07	2.0343E-09	1.8778E-06	6.4603E-07
9.3718E-08	-2.3591E-08	6.6856E-07	1.5110E-06
4.8842E-08	-1.0063E-07	1.5921E-06	1.6630E-06
-6.5853E-09	-1.0900E-07	1.2405E-06	1.6877E-06
-9.1531E-08	-3.6358E-08	1.9153E-06	1.3973E-06
-1.5241E-07	-1.0468E-08	8.7790E-07	1.3373E-06
-1.4995E-07	4.4239E-08	1.8065E-06	1.9006E-06
-5.5393E-08	9.8789E-08	1.1445E-06	1.1873E-06
3.4756E-08	1.2101E-07	1.6702E-06	2.1322E-06
6.8596E-08	6.8969E-08	1.6786E-06	1.1453E-06
1.2826E-07	1.0848E-08	1.7235E-06	1.6803E-06
6.4723E-08	-5.1399E-08	1.5005E-06	5.1195E-07
3.2921E-08	-7.9389E-08	4.0160E-07	1.5784E-06
-5.6689E-09	-8.1381E-08	1.1258E-06	2.0286E-06
-4.8921E-08	-2.9882E-08	1.4656E-06	2.1335E-06
-6.4200E-08	4.6314E-08	1.5357E-06	1.6481E-06
-7.5510E-08	5.3372E-08	1.5428E-06	2.2647E-06
-4.1700E-08	8.1822E-08	2.3303E-06	1.4269E-06
-1.7357E-08	2.6823E-08	1.3751E-06	1.0147E-06
3.3181E-08	1.3433E-08	8.9652E-07	1.4071E-06
2.2050E-08	4.7271E-09	1.1619E-06	2.4604E-06
-3.4753E-09	-2.2013E-08	2.1531E-06	1.4933E-06
-3.1885E-08	9.5753E-09	6.0275E-07	1.7323E-06
-4.0525E-08	1.6057E-08	2.2389E-06	2.8802E-06
1.4370E-08	2.5745E-08	2.3523E-06	9.0819E-07
7.1136E-08	3.4839E-08	1.1505E-06	1.5084E-06
7.9989E-08	3.3959E-08	1.7267E-06	1.7090E-06
8.3059E-08	-5.1914E-08	1.4208E-06	1.5995E-06
4.1112E-08	-6.4466E-08	1.7582E-06	1.8000E-06
1.7564E-09	-1.1588E-07	1.5600E-06	1.2617E-06
-2.0314E-08	-7.4401E-08	9.9718E-07	1.6919E-06
-8.7498E-08	-5.3800E-08	1.2345E-06	2.3012E-06
-9.4564E-08	-5.5797E-09	1.9521E-06	2.4833E-06
-1.2479E-07	3.1259E-08	2.3099E-06	1.8078E-06
-8.0670E-08	4.7139E-08	1.9980E-06	1.7721E-06
2.0647E-10	4.0853E-08	2.5930E-06	1.5462E-06
3.4277E-08	1.7504E-08	1.9625E-06	4.3850E-07
2.2609E-08	-2.2941E-08	7.6374E-07	1.2003E-06
2.3027E-08	-3.6395E-08	1.4731E-06	2.1372E-06
-1.6265E-08	-9.2124E-08	2.1533E-06	1.4721E-06
-3.7572E-08	-3.2509E-08	1.3663E-06	8.7141E-07
-9.1153E-08	-2.3703E-08	9.7448E-07	1.8595E-06
-6.3015E-08	2.2334E-08	1.8538E-06	1.6591E-06
-7.7699E-08	2.2482E-08	1.1617E-06	1.3911E-06
-2.0131E-08	6.3868E-08	1.4850E-06	1.7466E-06
-1.7866E-08	1.4339E-08	9.3871E-07	1.5666E-06
2.8810E-08	8.3350E-09	1.4285E-06	2.4043E-06
2.5438E-08	2.8662E-08	1.5000E-06	1.7383E-06
4.0766E-08	4.4610E-09	1.4953E-06	2.4919E-06
-1.3230E-08	-1.4847E-08	2.1735E-06	1.9240E-06
2.5406E-08	-2.8629E-08	1.9167E-06	1.7590E-06
1.4900E-08	-6.2452E-08	1.7524E-06	1.3845E-06
1.5972E-09	-1.0063E-08	1.4086E-06	1.8679E-06
-3.5255E-08	9.8224E-09	1.6045E-06	1.6906E-06
-6.7183E-08	3.0184E-08	1.4182E-06	2.3423E-06
-5.8468E-08	4.2896E-08	2.3328E-06	1.7743E-06
-3.5712E-08	5.1717E-08	1.0627E-06	1.7618E-06
-2.1332E-08	4.9738E-08	2.2636E-06	3.0026E-06
-3.7625E-08	3.9879E-08	2.9361E-06	1.4986E-06
2.4767E-08	7.6030E-08	2.2906E-06	1.3587E-06
5.3342E-08	5.4317E-08	2.2847E-06	7.6364E-07
4.4525E-08	3.3340E-08	1.0070E-06	1.0811E-06
3.4513E-08	9.5810E-09	1.7845E-06	2.2010E-06
3.3971E-08	2.3362E-09	2.4778E-06	1.3202E-06
7.1815E-08	9.3077E-10	1.9553E-06	5.7492E-07
3.4001E-08	-2.0807E-08	7.6530E-07	8.3882E-07
-8.8842E-09	-1.7022E-08	1.2789E-06	2.0085E-06
2.9497E-09	-1.4362E-08	1.6748E-06	1.1943E-06
-1.7791E-08	1.6419E-08	1.0586E-06	1.4317E-06
9.1124E-09	-5.8800E-09	1.0876E-06	1.7582E-06
2.6721E-08	-8.5590E-09	1.7096E-06	2.0059E-06
1.8249E-08	-2.1060E-08	1.2121E-06	9.8943E-07
1.1382E-08	-4.4124E-08	8.5986E-07	2.6937E-06
1.3755E-08	-4.2088E-08	2.5898E-06	1.4686E-06
2.0560E-08	-1.9579E-08	5.0978E-07	1.1232E-06
1.4823E-08	-1.9043E-08	1.2570E-06	2.4533E-06
-2.7900E-08	-3.6584E-08	1.4193E-06	2.1615E-06
-3.5420E-08	-5.0884E-08	2.2711E-06	1.9887E-06
-3.0665E-08	-3.8555E-08	1.0482E-06	8.7124E-07
-5.5159E-08	-1.9623E-08	6.8124E-07	2.7171E-06
-7.8107E-08	1.4496E-08	1.9850E-06	2.4178E-06
-4.8668E-08	3.6578E-08	1.6802E-06	2.1086E-06
-4.8367E-08	1.0370E-08	1.8748E-06	2.2915E-06
-3.8299E-08	-1.6973E-08	2.3441E-06	2.1197E-06
-4.1586E-09	2.5889E-08	2.1777E-06	1.3337E-06
-1.6739E-08	4.7477E-08	1.8206E-06	1.6458E-06
1.9987E-09	2.0236E-08	1.9532E-06	7.9647E-07
-2.7173E-08	2.5613E-08	8.2838E-08	1.4477E-06
2.9774E-08	4.9598E-08	1.5543E-06	3.2355E-06
1.0799E-08	1.2390E-08	2.3883E-06	1.7668E-06
-1.6836E-08	6.9093E-11	1.7508E-06	1.6858E-06
-3.9537E-08	1.8284E-09	1.7164E-06	1.5808E-06
6.0517E-09	2.7750E-08	1.5459E-06	1.6909E-06
-3.9155E-08	3.7372E-08	1.2967E-06	1.7130E-06
-4.9091E-09	3.1518E-09	1.5470E-06	2.3475E-06
4.1166E-09	1.5759E-08	1.9718E-06	1.7789E-06
1.4631E-08	1.5167E-08	1.5586E-06	1.9104E-06
