jMRUI Data Textfile

Filename: Export_to_jmrui.txt

PointsInDataset: 2048
DatasetsInFile: 1
SamplingInterval: 0.250000
ZeroOrderPhase: 0E0
BeginTime: 0E0
TransmitterFrequency: 1.2326E8
MagneticField: 2.8936E0
TypeOfNucleus:  
NameOfPatient:  
DateOfExperiment:  
Spectrometer:  
AdditionalInfo: 
SignalNames:  


Signal and FFT
sig(real)	sig(imag)	fft(real)	fft(imag)
Signal 1 out of 1 in file
2.1717E-06	6.3886E-07	-7.6523E-07	7.5708E-07
2.0524E-06	1.1947E-07	6.3371E-07	7.6330E-07
1.4630E-06	-4.4955E-07	-6.4133E-07	3.1773E-07
1.0541E-06	-7.3957E-07	6.3068E-07	1.4891E-06
3.2768E-07	-8.3896E-07	1.3302E-07	-1.0085E-07
-5.3529E-08	-5.8663E-07	-2.0836E-07	1.6513E-06
-3.0427E-07	-2.9989E-07	1.1804E-06	8.2868E-07
-2.1570E-07	2.5601E-08	2.0624E-07	5.9401E-07
1.4840E-08	1.8408E-07	6.8068E-07	1.1479E-06
3.4505E-07	1.6331E-07	6.9106E-07	7.3684E-07
4.2955E-07	-1.1185E-08	8.3782E-07	1.3108E-06
4.8302E-07	-1.7942E-07	1.6573E-06	6.7571E-07
2.9623E-07	-3.3519E-07	1.3734E-06	2.2174E-07
1.4997E-07	-3.3797E-07	1.2691E-06	-7.6628E-07
-4.7349E-08	-2.9615E-07	-7.0640E-07	-3.6440E-07
-1.1027E-07	-1.6107E-07	-4.1033E-09	1.2577E-06
-1.0963E-07	-3.8682E-08	6.9091E-07	1.1624E-06
-4.3299E-08	-1.2203E-08	1.4180E-06	4.5951E-07
2.5162E-08	-2.0436E-08	-6.9565E-08	1.9313E-07
4.9653E-08	-9.7611E-08	1.1923E-06	1.6766E-06
-7.2275E-08	-1.5208E-07	1.4973E-06	-2.8735E-07
-1.4251E-07	-1.3099E-07	4.4436E-07	3.4287E-07
-2.1870E-07	-3.0939E-08	8.0035E-07	2.7547E-07
-2.2783E-07	9.3527E-08	7.5282E-07	6.2374E-07
-1.6699E-07	1.1359E-07	1.2257E-06	5.7039E-08
-3.6331E-08	1.6563E-07	6.6202E-07	-1.2225E-07
4.6618E-08	1.0892E-07	7.2374E-07	-1.8405E-07
1.0290E-07	4.5390E-08	2.3147E-07	-6.9900E-07
8.4637E-08	-5.4087E-08	-1.1811E-06	-1.5758E-07
-1.7699E-08	-8.3413E-08	-5.0925E-07	1.8718E-06
-1.2469E-07	-5.6666E-08	1.0230E-06	9.1638E-07
-1.7252E-07	4.6083E-08	1.1956E-07	6.7089E-07
-1.7763E-07	1.2798E-07	8.4425E-07	9.1407E-07
-1.2914E-07	2.2686E-07	1.5356E-07	1.4362E-07
-2.0531E-08	2.3164E-07	4.1473E-08	1.4455E-06
8.8521E-08	2.0655E-07	1.2319E-06	7.1399E-07
1.5843E-07	1.1897E-07	-1.5507E-08	2.7546E-07
1.6395E-07	2.8735E-08	3.5166E-07	1.3807E-06
1.3246E-07	2.0207E-09	9.1068E-07	7.1803E-07
4.8512E-08	6.8654E-09	3.1047E-07	4.1577E-07
5.1866E-08	1.2066E-08	-1.6585E-07	1.2406E-06
8.7979E-08	1.8523E-08	1.2353E-06	1.5777E-06
1.0475E-07	2.6505E-08	7.0547E-07	2.2368E-08
1.8010E-07	-1.3376E-08	-1.8097E-07	1.2934E-06
1.3824E-07	-9.6962E-08	7.2238E-07	1.5156E-06
9.8972E-08	-2.0398E-07	1.2785E-06	1.5851E-06
5.8798E-09	-1.6810E-07	1.5562E-06	4.5296E-08
-3.7502E-08	-1.3627E-07	-3.6499E-07	4.9715E-07
-6.8964E-08	-6.0187E-08	5.2173E-07	1.8399E-06
-4.6029E-08	-3.8417E-08	1.2394E-06	1.4160E-06
-1.5700E-08	-8.8910E-09	1.1886E-06	7.6185E-07
4.4494E-08	-1.1649E-09	6.6638E-07	1.3977E-06
-1.9964E-09	-1.5090E-08	2.0442E-06	1.0601E-06
4.2620E-08	-5.8598E-08	7.3850E-07	4.3635E-08
-6.5905E-08	-7.8850E-08	8.9427E-07	1.3287E-06
-6.7376E-08	-7.2599E-08	1.2376E-06	5.5710E-07
-1.3543E-07	-3.1702E-08	7.3196E-07	9.9823E-07
-5.2568E-08	1.1098E-08	1.3056E-06	1.3169E-06
-5.4424E-08	6.5706E-08	1.8700E-06	7.7792E-07
5.4423E-08	7.1391E-08	1.3121E-06	4.6817E-07
9.1597E-08	-5.5867E-10	2.2317E-06	5.4606E-07
1.0078E-07	-3.2949E-08	1.1746E-06	-1.4137E-06
1.5021E-08	-7.7093E-08	-3.3139E-07	4.7478E-07
-3.4576E-08	-8.3208E-08	1.1720E-06	4.5651E-07
-8.8414E-08	-1.0598E-07	1.2908E-07	1.7598E-07
-1.2071E-07	-2.6498E-08	8.0889E-07	9.6465E-07
-1.8151E-07	4.7537E-08	5.9765E-07	1.0301E-07
-9.1123E-08	7.9175E-08	9.2474E-08	1.1660E-06
-6.6043E-08	6.0836E-08	1.2637E-06	1.2130E-06
-2.8015E-08	7.6713E-08	1.2447E-06	8.2479E-07
-3.1298E-08	4.4698E-08	1.9051E-06	2.0115E-07
-2.1115E-09	2.4949E-09	5.6323E-07	-6.3179E-07
-5.5003E-08	-1.6673E-08	6.6247E-07	1.7099E-07
-5.8192E-08	1.0402E-08	-4.3467E-07	-6.3548E-07
-5.5346E-08	5.9240E-08	-6.1408E-07	1.7806E-06
2.4491E-08	6.5177E-08	9.3309E-07	9.1182E-07
3.4589E-08	6.2355E-08	2.3026E-07	1.2516E-06
3.5045E-08	2.0226E-08	1.0605E-06	7.9119E-07
-3.5117E-09	3.2686E-08	1.0381E-07	1.1011E-06
1.5905E-09	-1.4248E-08	1.2506E-06	1.5158E-06
-3.5934E-08	1.4634E-08	1.4068E-06	7.3023E-07
-4.4572E-08	2.5880E-08	1.0299E-06	5.0998E-08
-6.3023E-08	7.0775E-08	2.4729E-07	6.7915E-07
-1.3399E-08	1.0849E-07	8.1473E-07	5.3720E-07
8.3722E-08	1.2608E-07	-7.2356E-08	8.8437E-07
1.4392E-07	9.0717E-08	8.5879E-07	1.4179E-06
1.4450E-07	1.1953E-08	8.8427E-07	1.0786E-06
1.3345E-07	-7.4532E-08	1.2103E-06	7.3836E-07
4.2302E-08	-1.1675E-07	5.5172E-07	7.8495E-07
-5.3353E-08	-1.1008E-07	1.1101E-06	7.3816E-07
-6.5024E-08	-7.9224E-08	1.9047E-07	7.9799E-07
-6.9210E-08	1.0948E-08	1.2396E-06	1.3631E-06
-4.4845E-08	7.2216E-08	7.7012E-07	5.4299E-07
7.8529E-09	9.2992E-08	1.0819E-06	1.0646E-06
5.5712E-08	6.8714E-08	6.3019E-07	4.3684E-07
1.0962E-07	2.1443E-08	8.3006E-07	1.3603E-06
1.1365E-07	-2.4280E-08	1.1919E-06	5.7063E-07
1.1291E-07	-9.2572E-08	7.5281E-07	6.8664E-07
5.6263E-08	-1.2755E-07	5.1190E-07	7.0252E-07
1.0943E-08	-5.4806E-08	7.7983E-07	1.4925E-06
-5.4279E-08	-7.2884E-08	1.5586E-06	6.9105E-07
-4.5746E-08	-3.4281E-08	4.7595E-07	4.0291E-07
-3.4716E-08	-2.8642E-08	8.9414E-07	1.5535E-06
-4.0997E-08	-3.4372E-09	1.8680E-06	2.8383E-07
9.1986E-09	-5.1863E-08	7.3593E-08	4.7041E-08
-5.3083E-10	-6.1676E-08	9.2425E-07	1.3185E-06
-3.4401E-08	-4.9646E-09	7.8230E-07	-1.5791E-07
-5.4221E-08	9.6638E-09	-4.8631E-07	1.1862E-06
-4.7813E-08	3.7454E-08	1.1228E-06	1.8294E-06
5.6712E-09	3.5927E-08	1.1572E-06	6.6207E-07
-1.0734E-08	7.5279E-08	7.0315E-07	1.0543E-06
7.8557E-08	3.5679E-08	1.0504E-06	8.1536E-07
4.3975E-08	-2.0715E-08	6.7022E-07	1.0419E-06
3.5690E-08	-3.6012E-08	1.1479E-06	7.1353E-07
-3.8430E-08	-5.9097E-08	1.7383E-07	1.1591E-06
-2.5047E-08	-3.4084E-08	1.9410E-06	1.3945E-06
-3.3830E-08	-1.6175E-11	3.9831E-07	-3.5955E-07
-6.1050E-08	1.5504E-08	1.3076E-07	2.0667E-06
-2.7153E-08	8.0987E-08	1.6605E-06	1.2315E-06
6.5795E-09	3.9222E-08	1.2813E-06	1.0141E-06
1.0173E-08	5.0463E-08	1.3075E-06	4.8213E-07
5.1849E-08	-9.6436E-09	8.6440E-07	8.9116E-07
4.5083E-08	4.4429E-08	1.2488E-06	5.9753E-07
1.5965E-08	-5.8831E-09	7.7394E-07	6.3729E-07
-8.5772E-09	-3.5830E-08	8.3528E-07	7.5207E-07
-2.8728E-08	-2.0270E-08	9.9339E-07	9.9322E-07
-3.9720E-08	-9.4995E-09	1.0925E-06	2.8873E-07
7.8964E-09	5.7725E-09	2.0990E-07	7.9254E-07
7.3537E-09	4.2065E-09	9.9612E-07	1.1364E-06
1.4149E-09	1.5201E-08	7.7288E-07	6.4909E-07
-1.8108E-08	1.1976E-08	5.1991E-07	8.3228E-07
1.0977E-08	-1.7981E-08	3.1938E-07	1.4186E-06
2.1778E-08	3.0792E-08	1.4091E-06	1.6364E-06
4.1137E-08	1.5009E-08	1.0453E-06	6.5881E-07
4.1809E-08	1.2159E-08	9.7554E-07	1.6273E-06
6.3678E-08	2.7857E-08	1.7924E-06	7.9287E-07
7.8293E-08	1.0959E-08	1.1056E-06	7.8327E-07
7.5981E-08	-4.4703E-09	1.3897E-06	3.4610E-07
2.9762E-08	-3.3398E-08	3.9085E-07	9.7202E-07
3.7595E-08	-5.0878E-08	1.8924E-06	7.8902E-07
3.0409E-08	-6.3641E-08	-7.0910E-08	2.7221E-07
-1.1926E-08	-5.1782E-08	1.7762E-06	2.2807E-06
-3.9815E-08	-3.7415E-08	1.8756E-06	-5.8411E-07
-3.6128E-08	-5.2608E-09	6.1125E-07	7.2487E-07
-5.5005E-08	1.8128E-08	1.2019E-06	-4.4348E-08
-3.6127E-08	2.4635E-08	5.7273E-07	6.3643E-07
-1.1775E-08	2.2740E-08	8.5915E-07	-4.2489E-07
-1.7756E-08	-2.7566E-09	-8.1219E-07	7.4905E-07
3.8703E-08	-2.7357E-08	5.9465E-07	1.2436E-06
1.0904E-08	-3.4041E-08	-1.0851E-07	1.1043E-06
-1.6359E-08	-3.0991E-08	5.0550E-07	1.8412E-06
-2.7268E-08	-1.8656E-08	9.1951E-07	2.0053E-06
-2.1086E-08	7.0415E-09	2.0721E-06	1.3865E-06
-2.6756E-08	5.2780E-08	1.1855E-06	3.6991E-07
6.3174E-09	3.9269E-08	9.8607E-07	9.1463E-07
-1.6213E-08	3.2154E-08	8.4369E-07	6.4951E-07
-1.2513E-10	1.8340E-08	6.2867E-07	1.2556E-06
4.8305E-09	9.2092E-09	1.2537E-06	1.1959E-06
-8.7028E-09	-2.4457E-08	8.4817E-07	1.2342E-06
-1.7246E-08	2.0493E-08	2.2624E-06	1.5813E-06
2.8076E-08	-2.7105E-09	1.5683E-06	-8.0094E-07
2.1410E-08	1.1236E-10	1.5727E-07	1.2591E-06
3.2316E-09	-3.7666E-08	2.1794E-06	1.4849E-07
9.0902E-09	1.1974E-08	-5.2255E-07	3.5588E-08
-2.6974E-08	-2.8311E-08	1.3598E-06	1.8553E-06
-4.6028E-08	7.8275E-09	1.1419E-06	-2.9729E-07
-4.7727E-08	-2.1850E-09	1.6945E-07	9.7233E-07
-3.1910E-08	2.0385E-08	1.1978E-06	6.6225E-07
-8.5594E-09	2.9034E-08	1.8879E-08	1.6685E-07
-8.5716E-09	2.9174E-08	-5.2049E-08	1.8487E-06
2.7144E-08	2.6109E-08	1.3799E-06	1.5086E-06
-2.2670E-09	7.0336E-08	1.0854E-06	1.1261E-06
2.1524E-08	5.0488E-09	1.3475E-06	6.5305E-07
5.0928E-08	3.0594E-08	3.7108E-07	1.1263E-06
5.3186E-08	-1.4338E-08	1.9244E-06	1.3768E-06
1.9892E-08	-6.1752E-09	1.0987E-06	7.9453E-08
2.6082E-08	-1.7447E-08	1.0266E-06	7.6714E-07
-3.3974E-08	-3.6264E-08	7.1517E-07	5.4322E-07
-2.5712E-09	1.3719E-08	1.4721E-06	8.9189E-07
-2.3902E-08	1.1353E-08	6.2627E-07	-3.2109E-07
-2.1754E-08	-1.5427E-09	5.4612E-07	1.0805E-06
-6.1492E-09	-6.1016E-09	7.7200E-07	-2.1366E-07
1.8469E-08	-3.5441E-08	-4.6725E-07	1.0738E-06
-4.4898E-09	-5.2161E-08	9.0798E-07	1.2080E-06
1.3259E-08	-4.7162E-08	4.7275E-07	8.6328E-07
-2.6768E-08	-3.4132E-08	7.0078E-07	8.7012E-07
-1.2252E-08	-3.9186E-08	2.7058E-07	1.0526E-06
-4.5281E-08	-6.8857E-08	9.5567E-07	1.1281E-06
-6.7958E-08	-2.1394E-08	3.1459E-07	6.1940E-07
-5.8642E-08	5.9695E-09	3.2757E-07	1.3274E-06
-4.4276E-08	3.5359E-08	1.1705E-07	1.3607E-06
-1.9587E-08	4.7923E-08	1.1573E-06	2.6482E-06
-4.7747E-09	-6.0313E-09	2.5125E-06	3.5076E-07
2.7644E-08	4.1169E-08	-3.9100E-08	3.3418E-08
-2.9807E-08	-2.3039E-09	5.5663E-07	1.4617E-06
-1.0749E-08	2.4527E-08	5.9737E-07	1.0599E-06
-2.1821E-08	2.1463E-08	8.8216E-07	1.4474E-06
1.2988E-08	3.0472E-08	1.0184E-06	1.1543E-06
-1.7486E-08	-7.8939E-10	1.1793E-06	8.7462E-07
-2.8280E-08	1.5424E-08	4.9539E-07	1.0388E-06
2.2590E-08	-1.7779E-08	1.8061E-06	1.2622E-06
9.7233E-10	-6.6798E-10	6.7892E-07	-8.6113E-07
-1.8119E-08	1.3665E-08	-9.6828E-07	1.3315E-06
-4.6592E-09	1.7818E-09	7.8234E-07	1.8701E-06
2.3240E-08	2.8981E-09	8.2474E-07	1.2896E-06
-2.5875E-08	-1.0112E-08	8.4940E-07	1.1227E-06
-3.5910E-08	-5.8969E-09	5.2120E-07	1.1421E-06
