jMRUI Data Textfile

Filename: Export_to_jmrui.txt

PointsInDataset: 2048
DatasetsInFile: 1
SamplingInterval: 0.250000
ZeroOrderPhase: 0E0
BeginTime: 0E0
TransmitterFrequency: 1.2326E8
MagneticField: 2.8936E0
TypeOfNucleus:  
NameOfPatient:  
DateOfExperiment:  
Spectrometer:  
AdditionalInfo: 
SignalNames:  


Signal and FFT
sig(real)	sig(imag)	fft(real)	fft(imag)
Signal 1 out of 1 in file
1.4569E-06	6.7991E-07	1.0727E-06	-6.2355E-07
1.1227E-06	1.8402E-07	1.8766E-07	-3.8065E-07
8.5649E-07	-2.4730E-07	-4.3647E-08	2.1863E-07
5.2907E-07	-2.9087E-07	3.6266E-07	4.7591E-07
2.2418E-07	-3.3595E-07	2.2568E-07	4.7561E-07
6.1886E-08	-2.6062E-07	6.7972E-07	8.7109E-07
-1.1191E-07	-1.1902E-07	9.6051E-07	2.4956E-07
-6.1803E-08	3.1416E-08	5.0655E-07	3.1774E-07
3.7699E-08	9.1434E-08	9.2150E-07	3.8445E-07
1.4734E-07	6.0122E-08	6.2455E-07	-7.7539E-09
2.0904E-07	2.7897E-09	8.2746E-07	9.0968E-08
2.6049E-07	-1.2402E-07	-7.5214E-08	-7.2151E-07
9.8082E-08	-1.9143E-07	-6.9187E-07	1.0910E-06
2.4605E-09	-1.8505E-07	7.1464E-07	1.0002E-06
-1.0379E-07	-1.6710E-07	6.5675E-07	9.8786E-07
-1.4787E-07	-6.8429E-08	1.2995E-06	3.4863E-08
-1.1953E-07	-2.7448E-08	-2.6913E-07	1.3120E-07
-3.4417E-08	1.6532E-08	6.0277E-07	1.0470E-06
2.5350E-08	-3.6508E-09	6.5769E-07	4.7324E-07
1.3931E-08	-1.5112E-08	5.8000E-07	2.4085E-07
-2.0166E-08	-9.0047E-08	-2.9541E-07	8.1942E-07
-6.7103E-08	-8.9888E-08	1.2119E-06	1.5068E-06
-1.5472E-07	-8.2316E-08	9.9533E-07	-7.6501E-08
-1.2701E-07	-4.7685E-08	9.1660E-08	6.8905E-07
-9.4013E-08	3.9948E-08	8.3367E-07	1.0682E-06
-2.5229E-08	7.4125E-08	7.8511E-07	5.0530E-07
2.8116E-09	5.2649E-08	8.2387E-07	1.3883E-06
5.6651E-08	3.0417E-08	2.2953E-06	2.9693E-08
5.3273E-08	-4.6956E-08	3.9829E-09	-8.3064E-07
-1.8773E-08	-3.2991E-08	1.7229E-07	6.7999E-07
-8.7145E-08	-3.7634E-08	4.8275E-09	7.4429E-07
-1.2400E-07	1.9547E-09	1.3905E-06	1.3424E-06
-1.2610E-07	6.3812E-08	8.6097E-07	-5.4180E-07
-8.0170E-08	1.2787E-07	-2.4183E-08	8.3656E-07
-2.7074E-08	1.3519E-07	9.8737E-07	6.4463E-07
2.5063E-08	1.5021E-07	6.8294E-07	2.3070E-08
9.2747E-08	1.5566E-07	-4.5863E-07	1.6744E-07
1.0202E-07	9.0878E-08	-4.2959E-08	1.8585E-06
8.4390E-08	5.2173E-08	1.3168E-06	1.2403E-06
6.8293E-08	5.3896E-08	9.2735E-07	4.7740E-07
2.7132E-08	2.5782E-08	2.4145E-07	8.5639E-07
3.5180E-08	2.5603E-08	1.0631E-06	1.5485E-06
6.3791E-08	2.3693E-08	1.3295E-06	7.7880E-07
8.8510E-08	9.8410E-09	1.5404E-06	7.5649E-07
8.1118E-08	-4.3692E-08	9.9346E-07	-2.4371E-07
7.7149E-08	-3.1091E-08	2.9098E-07	9.4105E-07
4.6873E-08	-5.5586E-08	1.4589E-06	1.0911E-06
5.1520E-08	-1.0234E-07	1.8693E-06	1.4928E-07
3.0566E-08	-5.4215E-08	6.6768E-07	-8.3008E-07
-1.1806E-08	-4.2021E-08	-1.1371E-07	7.2573E-07
1.3868E-08	1.4050E-08	1.1872E-06	7.1580E-07
2.0771E-08	-3.3114E-10	7.3137E-07	3.9041E-08
7.4225E-08	-2.5444E-08	4.5347E-07	3.8977E-07
1.0927E-08	-3.3047E-08	5.1852E-07	4.5040E-07
1.7954E-08	-1.2795E-07	4.3660E-07	7.7679E-07
-1.8088E-08	-8.2429E-08	1.1206E-06	5.2130E-07
-5.3943E-08	-5.1913E-08	1.7908E-07	7.8318E-08
-3.9270E-08	-1.3933E-08	4.7475E-07	8.8721E-07
-3.1204E-08	2.3792E-08	-6.6234E-08	5.9532E-07
5.9301E-10	-2.1849E-09	9.3967E-07	2.1789E-06
5.1316E-08	-2.6249E-08	1.9487E-06	-3.0138E-08
4.8733E-08	-2.6786E-08	-1.8921E-08	6.4678E-08
2.5922E-08	-8.7809E-08	-5.4083E-08	1.1826E-06
8.5826E-09	-3.6668E-08	1.0878E-06	2.1047E-06
-3.6916E-08	-8.0640E-08	1.8606E-06	6.1989E-07
-1.0364E-07	-5.3235E-08	1.3209E-06	9.4113E-07
-1.2907E-07	-1.7761E-08	1.8035E-06	-3.4061E-07
-9.1444E-08	-1.6836E-08	-2.5005E-08	3.7465E-07
-6.6869E-08	1.5258E-08	1.4069E-06	9.3814E-07
-5.4600E-08	6.1769E-08	8.0585E-07	4.6273E-07
-5.2128E-08	6.7606E-08	1.7377E-06	7.4993E-07
-1.8885E-08	5.3569E-08	1.2523E-06	-3.8106E-07
-1.0613E-08	7.3023E-08	9.9834E-07	-1.4632E-07
1.7641E-08	7.4565E-08	2.5773E-07	-6.1460E-07
1.3991E-08	4.0007E-08	-2.9953E-07	4.6759E-07
4.2370E-08	2.5637E-08	5.0430E-08	1.0085E-06
-9.3132E-09	2.5445E-08	1.0113E-06	1.6309E-06
3.6377E-08	-7.9643E-09	1.8307E-06	-1.0184E-07
2.5074E-08	-1.7286E-08	-3.6084E-07	-8.2988E-08
-3.0051E-08	-2.8133E-08	8.1439E-07	1.5862E-06
-5.9763E-08	-3.4689E-09	1.2178E-06	4.2836E-08
-5.2586E-08	3.1136E-08	3.6768E-07	4.4182E-07
-3.5777E-08	2.7760E-08	4.1888E-07	5.2389E-07
-1.6368E-08	6.6934E-08	5.2031E-07	1.0472E-06
4.8310E-08	8.4018E-08	6.8313E-07	7.0987E-07
5.6310E-08	5.1437E-08	8.2839E-07	1.3120E-06
1.1347E-07	-5.4933E-09	1.2071E-06	4.7679E-07
5.0100E-08	-2.8070E-08	6.9179E-07	1.1628E-06
2.8973E-08	-7.4996E-08	1.7580E-06	6.6942E-07
-2.3032E-08	-4.6949E-08	1.1289E-06	2.4219E-07
-2.9239E-08	-5.7572E-08	1.0026E-06	-2.4127E-08
-4.6880E-08	2.7296E-08	4.6282E-07	6.7605E-07
-1.7843E-08	4.3087E-08	1.2519E-06	2.0542E-07
-1.4710E-08	4.6772E-08	1.1081E-07	6.7361E-07
4.8266E-08	5.1094E-08	1.7806E-06	8.1436E-07
4.0542E-08	1.1488E-08	4.3518E-07	-3.6106E-07
2.0067E-08	-1.1120E-08	7.9065E-07	1.0854E-06
1.5209E-08	-5.5721E-08	1.2344E-06	7.1293E-08
2.8181E-08	-1.8460E-08	8.0976E-07	-2.1537E-08
2.4731E-08	-7.9206E-08	-1.6469E-08	-1.4161E-07
-3.7421E-08	-2.4718E-08	8.6269E-08	1.2396E-06
-1.5059E-09	-1.2095E-08	1.1021E-06	7.9599E-07
-1.7465E-08	2.3576E-09	7.4812E-07	3.2088E-07
-1.0308E-08	-1.3952E-08	2.7054E-07	6.0157E-07
-1.6010E-08	-1.6465E-08	9.2183E-07	1.1793E-06
-1.0521E-08	-3.3678E-08	1.0894E-06	1.9411E-07
-1.5603E-08	-7.9507E-09	4.1502E-07	5.3116E-07
-5.2668E-08	-2.1297E-08	5.7336E-07	5.5705E-07
-3.7223E-08	-2.6985E-08	3.8874E-07	1.0583E-06
-1.4896E-09	-3.6315E-09	1.0806E-06	9.4928E-07
-1.1157E-08	-1.2247E-08	8.2174E-07	7.5222E-07
3.4585E-08	3.5341E-08	9.1553E-07	7.9499E-07
-1.9233E-08	-1.3692E-08	9.6433E-07	1.2020E-06
-2.2573E-08	-2.0874E-08	1.9285E-06	6.2520E-07
-8.9885E-09	-3.2775E-08	1.0996E-06	4.7507E-08
-1.6086E-08	-1.4803E-08	1.5307E-06	-2.0901E-08
-3.9667E-08	-3.5635E-09	-7.0899E-08	-8.3268E-07
-3.1373E-08	1.0931E-08	-2.5414E-07	1.5259E-06
-6.0304E-08	1.5186E-08	1.6538E-06	9.4727E-07
-2.6920E-08	3.7711E-08	8.4487E-07	-2.5522E-07
-3.8463E-08	4.5959E-08	-1.4152E-07	5.5816E-07
2.3918E-08	1.4934E-08	7.3729E-07	1.4461E-06
3.6628E-09	1.1892E-08	1.2014E-06	7.6757E-07
4.4177E-08	9.8487E-09	1.0130E-06	7.4690E-07
3.9012E-11	-1.1411E-08	1.2131E-06	7.9617E-07
-1.9507E-08	-2.6669E-08	1.5501E-06	2.4671E-07
4.2918E-09	-2.6455E-08	5.8201E-07	8.1800E-08
-7.2581E-08	9.6269E-09	1.2211E-06	7.1210E-07
-2.3083E-08	2.9611E-08	7.4425E-07	-7.7579E-08
-1.0149E-08	2.1979E-08	1.0796E-06	8.0102E-07
-8.1557E-09	2.9022E-08	8.5882E-07	-3.9554E-07
2.6785E-08	3.1817E-08	5.3045E-07	9.2464E-07
4.1046E-08	3.4994E-08	1.2971E-06	-2.0639E-07
6.5195E-08	3.4508E-08	1.6006E-07	3.7493E-07
5.4070E-08	3.8568E-08	9.3563E-07	4.0311E-07
4.1303E-08	3.2332E-08	7.4521E-07	4.1504E-07
4.3063E-08	-1.9878E-08	7.2647E-07	-2.8908E-07
4.4606E-08	-2.2909E-08	-2.2387E-07	7.7837E-07
-1.1434E-08	-4.6251E-08	1.2402E-06	7.6151E-07
9.4983E-09	-2.2812E-08	5.2006E-07	1.1646E-07
3.8716E-09	-2.0193E-09	5.3723E-07	4.7690E-07
-7.9505E-09	-3.1915E-08	5.3805E-07	7.0697E-07
3.2531E-09	9.3713E-09	9.3777E-07	3.9208E-07
-1.8204E-08	-9.0811E-09	6.0620E-07	4.9677E-07
-2.4526E-08	-1.6814E-08	9.2694E-07	-9.8062E-08
2.5431E-08	4.7194E-10	-5.2155E-07	2.8560E-07
7.0067E-09	2.7304E-09	5.4421E-07	1.5396E-06
-3.6522E-08	-2.2671E-08	1.0462E-06	6.9183E-07
-2.4710E-11	-8.8625E-09	8.3421E-07	7.7946E-07
-3.8543E-08	6.5086E-09	1.4840E-06	5.2104E-07
1.3457E-09	-2.3797E-09	6.2622E-07	-5.6400E-07
1.2598E-08	-2.1688E-08	8.0516E-08	9.8217E-07
-1.9453E-08	2.0878E-08	1.4701E-06	9.9268E-08
9.2074E-09	2.7262E-09	-1.1757E-07	-2.0446E-07
4.6801E-09	1.5455E-08	1.0854E-07	5.4899E-07
-2.4024E-08	4.5102E-09	-1.2812E-07	1.1301E-06
1.4413E-08	2.9284E-08	1.1863E-06	1.1868E-06
-2.5467E-09	3.6936E-08	7.5596E-07	6.1585E-07
1.9567E-08	2.0552E-08	1.5012E-06	4.8449E-07
2.4262E-08	2.6557E-08	3.5169E-07	-4.4418E-07
2.4001E-08	-1.6502E-08	2.6059E-07	7.3297E-07
1.4430E-08	-1.6418E-08	6.3808E-07	2.7747E-07
2.2011E-08	-4.4910E-08	1.3694E-07	2.9473E-07
1.4418E-09	-3.4908E-08	8.0980E-08	1.1084E-06
-2.6254E-08	-2.4181E-09	1.4225E-06	8.1733E-07
-3.1046E-08	1.7425E-08	4.7728E-07	-4.9473E-07
-3.0876E-08	3.0638E-08	-3.1593E-07	4.4471E-07
-3.7362E-08	2.6942E-08	1.4012E-08	1.0147E-06
-4.7883E-08	4.4753E-08	6.6862E-07	8.3921E-07
-7.6907E-09	5.3554E-08	2.5148E-08	4.7561E-07
3.3335E-08	3.3355E-08	2.6516E-07	1.2050E-06
6.1851E-08	5.8083E-08	2.9421E-07	8.5215E-07
2.8555E-08	5.7770E-09	4.2262E-07	1.4778E-06
3.3750E-08	1.0897E-08	1.0193E-06	1.0362E-06
2.8656E-09	1.9574E-09	7.0071E-07	7.5685E-07
1.5153E-08	-1.0991E-08	5.6187E-07	1.0786E-06
-3.2502E-09	-2.3479E-08	1.1746E-06	1.0409E-06
-4.9202E-09	-3.2984E-09	7.2871E-07	5.6047E-07
3.4106E-08	-3.5718E-08	1.2025E-06	1.2029E-06
3.9159E-08	-1.8024E-08	1.3696E-06	-2.8019E-07
1.2878E-08	5.8250E-09	-9.7626E-08	4.0812E-07
-5.6771E-09	-9.8120E-10	1.0567E-06	7.3394E-07
3.0455E-08	-3.8741E-08	9.2789E-08	-6.9540E-08
4.5695E-09	-3.8575E-08	1.8031E-07	1.2930E-06
-2.0204E-08	-2.6324E-08	9.2367E-07	4.5273E-07
-4.5749E-09	-7.4515E-08	-7.5752E-08	5.2537E-07
-2.7181E-08	-2.9901E-08	1.9799E-07	1.2672E-06
-4.3646E-09	-1.0962E-08	7.8898E-07	1.2837E-06
-1.1499E-08	-1.3219E-08	8.2737E-07	5.4268E-07
-2.8626E-08	-1.5062E-09	-9.4366E-08	1.0197E-06
-1.3520E-08	1.0906E-08	9.1647E-07	1.8974E-06
-1.7392E-08	-2.5174E-09	1.4662E-06	8.0442E-07
1.1856E-08	1.5530E-08	6.8951E-07	9.3048E-07
-3.3994E-09	2.5402E-08	1.6546E-06	1.1440E-06
1.8927E-08	-5.1774E-09	1.1898E-06	-5.1448E-08
2.8886E-08	2.6779E-08	8.9924E-07	6.9734E-07
1.5117E-09	-3.2248E-09	1.1011E-06	-1.6616E-07
1.4429E-08	7.2845E-09	2.8093E-07	3.4356E-07
-1.5896E-08	1.3026E-08	4.7848E-07	1.2087E-07
6.1827E-09	5.3153E-09	-8.4231E-09	1.0301E-06
9.4588E-09	7.5682E-09	1.1592E-06	3.7674E-07
1.0400E-08	2.8193E-08	-4.7013E-07	3.3947E-07
4.9497E-09	1.7615E-08	4.7966E-07	1.5870E-06
-2.4740E-09	-3.3351E-08	1.0702E-06	9.0380E-07
-1.2495E-08	-1.9443E-08	7.6021E-07	-1.9313E-08
1.0056E-09	-1.6828E-08	-4.9591E-07	1.0836E-06
