jMRUI Data Textfile

Filename: Export_to_jmrui.txt

PointsInDataset: 2048
DatasetsInFile: 1
SamplingInterval: 0.250000
ZeroOrderPhase: 0E0
BeginTime: 0E0
TransmitterFrequency: 1.2326E8
MagneticField: 2.8936E0
TypeOfNucleus:  
NameOfPatient:  
DateOfExperiment:  
Spectrometer:  
AdditionalInfo: 
SignalNames:  


Signal and FFT
sig(real)	sig(imag)	fft(real)	fft(imag)
Signal 1 out of 1 in file
1.5911E-06	5.8163E-07	-5.5189E-07	1.3962E-06
1.2120E-06	1.3911E-07	6.9873E-07	1.0444E-06
8.8557E-07	-2.4888E-07	3.6791E-07	5.1516E-07
6.1578E-07	-4.8728E-07	-8.6648E-08	6.5243E-07
2.1958E-07	-5.7682E-07	5.1557E-07	1.4700E-06
-1.0567E-07	-4.9096E-07	9.8812E-07	2.7096E-07
-2.9275E-07	-2.4965E-07	8.8315E-08	5.3264E-07
-1.5884E-07	-3.3466E-08	2.3424E-07	6.6566E-07
-5.1418E-08	6.0497E-08	3.6836E-07	1.1680E-06
2.1644E-07	1.1914E-07	5.3535E-07	4.5705E-07
2.4724E-07	1.4097E-08	8.6912E-09	1.5700E-06
2.8061E-07	-1.7675E-07	1.5935E-06	1.0834E-06
1.3407E-07	-2.6822E-07	7.0941E-07	4.5658E-07
3.2284E-08	-2.2417E-07	1.0244E-06	5.0191E-07
-1.3879E-07	-2.1602E-07	1.5882E-08	4.0374E-07
-1.0376E-07	-8.9665E-08	6.7645E-07	1.8249E-06
-1.1076E-07	-7.5972E-09	2.1343E-06	7.9165E-07
-5.4019E-08	3.7075E-08	1.1517E-06	-5.3835E-07
3.2551E-08	-1.1115E-08	4.1701E-07	4.5847E-08
3.2771E-08	-7.3727E-08	1.0023E-07	4.7579E-08
-4.8161E-08	-9.9504E-08	1.6633E-07	1.1695E-06
-1.1978E-07	-1.0513E-07	9.2491E-07	3.8715E-07
-2.2023E-07	-9.4930E-08	7.7586E-08	8.7208E-07
-2.0083E-07	-5.6445E-09	1.0662E-06	8.1010E-07
-1.4698E-07	9.5978E-08	3.7658E-07	5.7414E-07
-6.8916E-08	1.5234E-07	8.0951E-07	9.0683E-07
2.4313E-08	9.2016E-08	6.9367E-07	7.7318E-07
7.6954E-08	2.9820E-08	9.6549E-07	7.6581E-07
3.6244E-08	-6.4649E-08	9.6302E-07	7.2135E-07
8.9835E-10	-7.4416E-08	1.0187E-06	1.7684E-07
-1.2546E-07	-3.6739E-08	3.6102E-07	7.9300E-07
-1.2647E-07	4.1724E-08	1.5733E-06	4.8742E-07
-1.6480E-07	1.2294E-07	2.4321E-07	-4.0479E-07
-5.6580E-08	1.1530E-07	-2.6606E-08	9.9650E-07
1.8026E-08	1.9059E-07	1.0719E-06	1.0830E-06
1.1238E-07	1.9658E-07	8.8081E-07	-1.4306E-07
1.4559E-07	1.3056E-07	-3.3741E-07	9.3089E-07
1.3446E-07	8.6586E-08	1.3109E-06	1.3279E-06
7.9772E-08	1.7798E-08	8.9843E-07	3.2931E-07
9.2924E-08	6.8034E-09	9.5797E-07	4.9709E-07
4.4657E-08	3.7179E-08	4.6592E-07	2.7825E-07
1.1662E-07	1.0377E-08	7.4959E-07	5.8133E-07
9.1111E-08	1.6680E-08	2.5442E-07	1.8877E-07
1.4010E-07	-4.5399E-09	1.4481E-07	9.5220E-07
8.9058E-08	-5.0719E-08	6.3999E-07	9.9980E-07
7.7998E-08	-1.1384E-07	5.3394E-07	4.7659E-07
2.5842E-08	-7.5078E-08	-1.8483E-07	1.4460E-06
3.0544E-08	-1.1706E-07	1.6828E-06	1.6855E-06
-1.8443E-08	-6.1366E-08	9.8658E-07	1.2414E-07
-5.7657E-09	-2.1886E-08	7.3110E-07	1.0600E-06
1.7575E-08	-1.0773E-09	9.4594E-07	3.9354E-07
4.0386E-08	-4.1878E-09	2.8255E-07	9.7660E-07
5.6699E-08	-4.7738E-08	1.1836E-06	1.3307E-06
1.9524E-08	-5.2460E-08	1.2877E-06	4.1872E-07
-1.8060E-08	-7.3585E-08	6.8612E-07	6.2845E-07
-4.6573E-08	-8.6895E-08	9.2194E-07	4.7291E-07
-8.9779E-08	-3.5785E-08	2.2448E-07	9.8171E-07
-8.0386E-08	-3.5198E-08	1.6183E-06	1.1543E-06
-3.9759E-08	2.5611E-08	6.6660E-07	-1.0992E-07
2.5476E-08	5.5718E-09	3.6803E-07	1.2434E-06
6.6117E-08	5.1861E-09	1.2256E-06	1.0695E-06
7.6391E-08	-6.3129E-08	1.4468E-06	5.2730E-07
-1.6875E-09	-8.1182E-08	6.8625E-07	3.4415E-08
1.3727E-09	-7.5721E-08	5.1797E-07	6.7295E-07
-5.4125E-08	-9.8526E-08	4.0059E-07	6.8261E-07
-9.2017E-08	-1.8431E-08	7.9592E-07	1.1974E-06
-1.0198E-07	-1.6390E-08	8.4557E-07	6.9455E-07
-7.3090E-08	4.5959E-08	9.9846E-07	9.5258E-07
-5.9943E-08	2.0514E-08	5.3146E-07	2.8287E-07
-5.0795E-08	5.2801E-08	3.5610E-07	1.7127E-06
-4.7144E-09	4.5629E-08	1.7508E-06	9.9941E-07
-3.1711E-08	8.8046E-09	9.1513E-07	4.4152E-07
-5.4458E-08	2.6656E-08	8.7860E-07	6.0072E-07
-9.4769E-09	4.8942E-08	4.2381E-07	6.6313E-07
-8.8008E-10	3.7699E-08	2.9415E-07	1.3118E-06
1.9341E-08	3.1022E-08	1.0882E-06	2.1149E-06
8.9132E-09	3.8866E-08	2.2461E-06	1.0621E-06
4.8432E-08	1.5524E-08	1.2319E-06	5.9981E-07
4.3688E-09	-1.1691E-08	2.1227E-06	9.1478E-07
1.5914E-08	-1.3940E-08	1.2933E-06	-8.2389E-07
-1.3641E-08	-8.1479E-09	-1.6126E-08	9.3552E-07
-5.0289E-08	1.2197E-08	1.8303E-06	8.5317E-07
-3.2071E-08	7.8328E-08	4.8436E-07	-9.8192E-08
-1.5408E-08	9.8368E-08	8.7840E-07	1.4539E-06
3.3461E-08	6.3221E-08	1.5094E-06	1.1911E-07
1.2044E-07	3.7297E-08	1.8231E-07	8.4634E-07
6.7782E-08	1.6099E-08	1.8397E-06	1.2970E-06
8.3822E-08	-2.2614E-08	1.1266E-06	-2.9949E-07
3.8348E-08	-2.5663E-08	5.2181E-07	1.0564E-06
2.4809E-09	-2.1038E-08	1.4595E-06	5.7380E-07
-2.7831E-08	-3.9287E-08	8.4019E-07	7.5309E-07
-3.4043E-08	-6.3221E-09	1.7267E-06	4.9210E-07
-1.0748E-07	6.7008E-08	7.4659E-07	-1.3128E-07
-1.6181E-08	4.6510E-08	5.6973E-07	4.7730E-07
4.7099E-08	9.1548E-08	3.6335E-07	1.0003E-06
6.5212E-08	4.3101E-08	1.6230E-06	1.2198E-06
5.9771E-08	-1.5871E-08	1.1268E-06	4.0340E-08
7.7415E-08	-7.1871E-08	9.2160E-07	7.8773E-07
7.0236E-10	-7.9365E-08	1.1443E-06	3.2813E-07
-2.0764E-09	-3.3354E-08	8.9467E-07	3.4563E-07
-1.3457E-08	-3.0071E-08	2.3646E-07	4.1123E-07
-3.0627E-08	-2.3101E-08	9.5212E-07	1.8169E-06
-5.5019E-09	-3.5797E-08	2.2073E-06	2.0033E-07
-7.7989E-09	2.1191E-08	4.7358E-07	-2.8392E-07
-3.6922E-08	-1.4655E-08	5.5006E-07	6.9944E-07
-3.0737E-08	7.6048E-09	5.6266E-07	4.3611E-07
-6.8561E-08	2.7182E-08	2.2366E-07	1.1612E-06
-6.4759E-08	-7.5116E-09	1.2559E-06	1.4070E-06
-3.8387E-08	2.1863E-08	1.1598E-06	6.4664E-07
-1.6718E-08	9.6241E-09	9.7517E-07	9.4889E-07
-2.2091E-08	6.7019E-09	1.0539E-06	9.5410E-07
-3.1124E-08	-3.7352E-09	1.4665E-06	1.1760E-06
8.8375E-09	-2.6937E-09	1.6976E-06	3.9388E-07
1.2709E-08	-8.1431E-09	9.1596E-07	2.1113E-07
-1.4974E-08	-3.4747E-08	6.5256E-07	1.1317E-06
-9.1444E-09	-4.2037E-08	2.0063E-06	1.1805E-06
-7.4722E-08	1.8040E-10	1.3898E-06	-1.7007E-08
-5.1790E-08	1.0474E-08	1.3440E-06	9.0931E-07
-6.0192E-08	1.8007E-08	1.6479E-06	4.1665E-08
-4.4284E-08	6.7966E-08	1.2669E-06	4.7092E-07
2.9576E-09	4.8480E-08	1.5373E-06	-1.1822E-07
-7.7819E-09	4.7996E-09	1.1332E-06	1.2167E-07
-5.3348E-09	2.5152E-08	1.1041E-06	-4.6954E-07
3.0598E-08	2.4578E-08	4.1894E-07	1.8976E-07
2.7500E-08	-2.5988E-08	7.2064E-07	9.8373E-09
-2.3465E-08	-4.9583E-08	4.7282E-07	7.6182E-07
-3.4042E-08	-5.5335E-09	1.1388E-06	-1.6509E-07
-1.4877E-08	4.2735E-09	-3.3161E-07	7.4801E-07
-2.7300E-08	2.0903E-08	1.6097E-06	9.3362E-07
-2.1211E-08	4.3230E-08	1.6160E-07	-1.0489E-08
-3.4915E-10	4.7369E-08	1.0264E-06	1.5478E-06
1.6604E-08	2.5792E-08	1.5425E-06	-1.9882E-08
2.7827E-08	-3.1213E-10	4.4138E-07	1.7929E-07
1.8068E-08	-7.4600E-09	8.2539E-07	6.6352E-07
3.3109E-08	2.2674E-08	6.9453E-07	-8.8341E-09
4.9016E-08	-2.6982E-08	-1.0922E-07	9.9944E-07
4.4909E-08	-1.4373E-08	1.4001E-06	1.1738E-06
5.2232E-08	-1.5114E-08	7.7215E-07	1.6280E-07
5.1488E-08	-1.8092E-08	4.0603E-07	8.3506E-07
-4.9398E-09	-3.4822E-08	9.0487E-07	1.4644E-06
2.1800E-08	-4.8875E-08	1.8828E-06	2.8751E-07
-2.3254E-08	-2.1914E-08	-1.0059E-07	3.6446E-07
-3.2363E-08	-2.0827E-08	1.7245E-06	1.5455E-06
-1.2475E-08	-4.2198E-08	8.0105E-07	-4.5155E-07
1.0824E-08	-4.5181E-08	4.8356E-07	1.5057E-06
-1.9776E-08	-7.2677E-09	1.4261E-06	5.7840E-07
-2.9287E-08	-2.7251E-09	1.0429E-06	9.4478E-07
1.2519E-08	-8.8183E-09	1.4140E-06	3.5599E-07
-1.2731E-08	1.1535E-08	8.7281E-07	5.5914E-07
8.6410E-09	4.7736E-09	1.0331E-06	7.2166E-07
-2.8079E-08	-3.9379E-08	1.5108E-06	7.7451E-07
-6.9774E-09	-1.8762E-08	1.1426E-06	7.2266E-09
-1.7031E-08	3.3945E-09	1.0366E-06	7.5164E-07
-3.8560E-08	-3.3870E-09	1.2060E-06	2.0624E-07
-7.4636E-09	6.5717E-08	1.3378E-06	7.6439E-07
-3.2478E-08	1.8754E-08	1.5173E-06	-5.2473E-07
-7.7495E-13	1.4345E-09	3.8294E-07	1.5566E-07
1.6436E-08	2.3284E-08	8.0754E-07	1.4710E-07
1.3558E-08	5.3220E-09	6.2323E-07	9.0729E-07
4.0964E-09	6.2778E-09	1.7545E-06	3.0463E-09
3.7325E-08	3.8971E-08	3.0243E-07	-2.3824E-07
2.6061E-08	3.9212E-09	7.9831E-07	3.9525E-07
4.8021E-08	6.8200E-09	6.5513E-07	6.7797E-08
2.3091E-08	-3.0765E-08	3.9697E-07	-1.3123E-07
-5.5643E-09	-1.0350E-08	-2.0556E-07	8.2627E-07
-5.8498E-08	1.5102E-08	1.1347E-06	6.6827E-07
-2.7596E-08	-1.3346E-08	-1.2472E-07	3.5629E-07
-1.6704E-08	2.5808E-08	1.2437E-06	1.4065E-06
-4.9974E-08	3.7401E-08	7.6169E-07	-7.4058E-07
8.4454E-09	2.9474E-08	-9.4734E-07	1.1188E-06
2.3850E-08	1.6854E-08	1.2114E-06	1.9927E-06
2.7818E-08	1.9886E-08	1.3839E-06	3.0840E-07
1.5698E-08	2.0569E-08	4.1083E-07	6.7248E-07
6.8904E-08	-4.8997E-09	8.8778E-07	9.6496E-07
1.8646E-08	1.4828E-08	8.9229E-07	1.0812E-06
1.4795E-08	4.6613E-09	1.8225E-06	6.9106E-07
-4.7598E-09	-4.4124E-09	8.3540E-07	-4.0116E-07
1.1449E-08	-5.6355E-09	2.6671E-07	5.0933E-07
7.2066E-10	-1.7730E-08	3.3109E-07	7.2899E-07
3.3160E-09	-2.8140E-08	7.8894E-07	1.3228E-06
-2.6354E-08	-2.9523E-08	1.1121E-06	7.5011E-07
3.3191E-08	-1.8747E-08	1.2860E-06	1.0938E-06
2.3821E-09	-1.5446E-08	1.5903E-06	-1.6215E-07
2.3916E-08	-4.1730E-08	2.0919E-07	3.8370E-07
2.3172E-09	-1.5398E-08	1.2730E-06	6.6604E-07
3.0334E-08	-3.8119E-08	5.7603E-07	2.2382E-07
2.5781E-08	-4.7270E-08	1.0632E-06	5.7311E-07
-2.1439E-08	-3.3727E-08	5.0552E-07	2.6881E-07
-3.2978E-08	1.6764E-09	1.2946E-06	5.0460E-07
-1.4320E-08	3.2972E-09	-2.2903E-08	-4.5989E-07
-4.6028E-08	8.3938E-09	5.0593E-07	1.3995E-06
-2.6644E-08	1.9388E-08	5.4073E-07	-4.7051E-07
-2.8357E-08	5.1421E-08	-5.5060E-07	1.8647E-06
1.5243E-08	8.4439E-09	2.0530E-06	9.6259E-07
5.2455E-09	1.8935E-08	5.5892E-07	-8.5411E-08
-1.0366E-08	-7.6977E-09	3.0964E-07	8.5174E-08
-1.1508E-08	-9.8339E-12	-5.8906E-07	1.1197E-06
8.0931E-09	2.2969E-08	8.3941E-07	1.4640E-06
-3.1182E-08	-6.8344E-08	3.2556E-07	1.3165E-06
6.1803E-09	-1.5023E-09	1.5799E-06	1.5273E-06
2.3870E-08	6.1063E-10	1.1457E-06	4.6269E-07
2.1446E-08	1.6004E-08	8.9170E-07	5.0566E-07
3.2690E-09	1.9805E-08	1.8181E-07	1.2022E-06
3.6096E-08	5.8386E-09	2.0928E-06	1.4721E-06
-1.1066E-08	-1.7271E-08	1.1813E-06	-3.7942E-07
-2.7564E-08	-2.8045E-08	8.4472E-07	4.9936E-07
-5.4733E-09	9.7856E-09	1.8596E-07	-7.8831E-08
