jMRUI Data Textfile

Filename: Export_to_jmrui.txt

PointsInDataset: 2048
DatasetsInFile: 1
SamplingInterval: 0.250000
ZeroOrderPhase: 0E0
BeginTime: 0E0
TransmitterFrequency: 1.2326E8
MagneticField: 2.8936E0
TypeOfNucleus:  
NameOfPatient:  
DateOfExperiment:  
Spectrometer:  
AdditionalInfo: 
SignalNames:  


Signal and FFT
sig(real)	sig(imag)	fft(real)	fft(imag)
Signal 1 out of 1 in file
5.5375E-06	-8.9269E-07	2.9304E-06	3.0352E-06
4.4392E-06	-3.4983E-06	2.9683E-06	1.2903E-06
2.0341E-06	-4.9481E-06	2.4569E-06	1.8824E-06
-8.7178E-07	-4.6557E-06	3.5241E-06	1.2343E-06
-2.4987E-06	-3.3503E-06	2.2070E-06	8.2313E-07
-3.3008E-06	-1.3040E-06	2.8689E-06	1.7476E-06
-2.8664E-06	6.9492E-07	2.7152E-06	1.2062E-06
-1.5679E-06	1.7932E-06	3.3194E-06	1.7770E-06
-4.6643E-08	1.9538E-06	3.3783E-06	8.5876E-07
1.1603E-06	1.1032E-06	3.4132E-06	8.2640E-07
1.4831E-06	1.7765E-08	2.2710E-06	3.6965E-07
1.3266E-06	-9.3434E-07	2.8703E-06	2.2998E-06
5.4328E-07	-1.4670E-06	4.0940E-06	7.1468E-07
-2.0616E-07	-1.4621E-06	2.9476E-06	5.8533E-07
-9.8556E-07	-9.7850E-07	2.9496E-06	9.0519E-07
-1.1509E-06	-5.4155E-07	3.3548E-06	9.6440E-07
-1.1903E-06	-7.4906E-08	2.4308E-06	3.9712E-07
-8.8092E-07	1.8364E-07	2.8539E-06	2.4351E-06
-6.9386E-07	3.0970E-07	4.3858E-06	8.4229E-07
-4.6042E-07	3.6008E-07	3.2543E-06	1.0271E-06
-4.8717E-07	4.2774E-07	4.3528E-06	3.4764E-07
-3.1383E-07	5.4760E-07	2.3652E-06	-2.1165E-07
-2.1912E-07	7.0911E-07	2.7126E-06	1.8335E-06
4.1929E-08	6.9601E-07	4.1914E-06	9.2727E-07
1.8767E-07	5.7082E-07	2.9057E-06	2.8809E-07
3.4751E-07	2.4968E-07	3.3260E-06	1.6237E-06
3.2816E-07	-8.1351E-08	4.0935E-06	6.5547E-07
1.4164E-07	-3.5089E-07	3.6170E-06	4.0293E-07
-1.4633E-07	-3.0077E-07	3.0368E-06	3.3421E-07
-3.7570E-07	-9.1380E-08	3.5133E-06	1.3931E-06
-5.4228E-07	3.0742E-07	4.0179E-06	4.0932E-08
-4.3573E-07	5.6677E-07	2.9587E-06	6.1620E-07
-1.6258E-07	8.0249E-07	3.6303E-06	5.8464E-07
2.3483E-07	7.7975E-07	3.3309E-06	7.6695E-07
5.0375E-07	6.1104E-07	3.8779E-06	4.1814E-07
6.9673E-07	2.7060E-07	3.3727E-06	3.4030E-07
6.8276E-07	3.7096E-08	3.5213E-06	1.9386E-07
6.1223E-07	-1.5460E-07	3.0616E-06	3.8345E-07
4.7980E-07	-1.6353E-07	3.2407E-06	4.5456E-07
4.4196E-07	-2.0055E-07	3.1542E-06	8.9356E-07
3.8233E-07	-1.7432E-07	3.9208E-06	5.9920E-07
3.7652E-07	-3.1409E-07	3.5174E-06	1.9514E-07
2.1864E-07	-4.1078E-07	3.5788E-06	1.6052E-07
9.0810E-08	-5.1701E-07	3.1615E-06	-1.8351E-07
-1.5417E-07	-5.4463E-07	2.5667E-06	4.9864E-07
-3.4985E-07	-4.3125E-07	3.7957E-06	8.4351E-07
-5.3189E-07	-2.0645E-07	2.9815E-06	-6.1208E-07
-3.7738E-07	2.6268E-08	2.5092E-06	1.0545E-06
-2.2984E-07	2.3271E-07	3.2279E-06	3.5142E-07
6.3633E-08	2.5990E-07	3.1203E-06	1.2973E-06
2.6547E-07	8.1416E-08	3.8860E-06	-4.1252E-07
3.5079E-07	-1.3870E-07	1.9853E-06	6.6872E-07
1.8184E-07	-3.9690E-07	3.5109E-06	4.2001E-07
-1.0323E-07	-4.9459E-07	1.6134E-06	9.0503E-07
-3.7748E-07	-3.5941E-07	3.6464E-06	1.9094E-06
-5.1131E-07	-1.2060E-07	3.0654E-06	1.1323E-06
-4.8740E-07	1.7696E-07	4.5004E-06	1.4350E-06
-2.9686E-07	3.4581E-07	3.3687E-06	-3.1677E-07
-7.1681E-08	4.1120E-07	2.6772E-06	1.0507E-06
1.6412E-07	2.8234E-07	2.9643E-06	1.6258E-06
3.1159E-07	3.3743E-08	4.3220E-06	1.9670E-06
2.1230E-07	-1.6159E-07	4.4006E-06	8.7180E-07
6.2132E-08	-2.5163E-07	4.7499E-06	7.1760E-07
-1.0526E-07	-2.1573E-07	3.7367E-06	-2.9815E-07
-2.3250E-07	-1.1768E-07	3.6637E-06	1.3959E-06
-2.6900E-07	1.1461E-07	5.2309E-06	2.6407E-07
-1.6878E-07	2.4427E-07	3.8447E-06	-7.0253E-07
-7.6529E-09	2.0689E-07	3.6806E-06	2.5291E-07
6.9641E-08	1.6637E-07	4.0938E-06	-5.4540E-07
1.5515E-07	2.5132E-08	2.7255E-06	-4.3364E-07
7.2809E-08	-1.1415E-08	2.9800E-06	5.2403E-07
-1.3823E-08	-2.0785E-08	3.0587E-06	1.0206E-06
-1.5410E-07	3.4357E-08	4.7678E-06	1.2143E-06
-1.4818E-07	1.3094E-07	4.4801E-06	-1.0170E-06
-6.8129E-08	2.7103E-07	2.8168E-06	-1.2687E-07
1.3163E-07	2.4653E-07	4.2418E-06	4.2118E-07
1.9056E-07	1.9252E-07	3.5325E-06	-1.5136E-06
3.2754E-07	6.1545E-08	1.7672E-06	3.0244E-07
2.4351E-07	-8.2178E-08	3.5854E-06	7.6390E-07
1.1839E-07	-2.0557E-07	2.8315E-06	6.4549E-07
-1.6164E-08	-1.3345E-07	4.5936E-06	9.2123E-07
-3.9311E-08	-7.8941E-08	3.4168E-06	-5.5153E-07
-8.0312E-08	1.1651E-07	4.1029E-06	6.8500E-07
4.5602E-08	2.0280E-07	3.7130E-06	-9.8455E-07
2.0115E-07	1.6648E-07	3.7197E-06	1.4858E-07
2.7359E-07	2.7830E-08	3.2032E-06	-1.7854E-06
2.7205E-07	-1.5824E-07	1.8728E-06	6.3288E-07
1.5594E-07	-3.0950E-07	3.6861E-06	-2.3028E-07
-4.3031E-08	-3.0639E-07	2.1143E-06	3.9984E-07
-1.8367E-07	-2.4464E-07	4.0526E-06	5.9808E-07
-3.0255E-07	-5.7412E-08	3.2001E-06	-5.3404E-07
-2.0130E-07	1.4402E-07	3.0947E-06	-4.7495E-07
-7.6126E-08	2.1900E-07	1.8722E-06	-1.3371E-07
1.5364E-07	2.6960E-07	2.8464E-06	1.1182E-06
2.6048E-07	1.7121E-07	3.2502E-06	3.6071E-07
3.0864E-07	-3.3640E-08	3.0891E-06	3.2739E-07
2.6261E-07	-2.0060E-07	2.8480E-06	6.4051E-07
1.1376E-07	-2.9492E-07	3.8190E-06	8.1433E-07
-9.8951E-08	-2.9007E-07	3.5946E-06	-8.2004E-08
-2.1021E-07	-2.6881E-07	3.7964E-06	7.2945E-08
-2.7042E-07	-1.3453E-07	3.2307E-06	-1.1804E-06
-2.5867E-07	-5.6266E-08	1.9254E-06	-7.5835E-08
-2.1405E-07	6.3873E-08	2.7049E-06	4.9700E-07
-1.7974E-07	2.0415E-08	2.6118E-06	5.9833E-07
-1.2248E-07	1.3055E-07	3.3051E-06	8.1135E-07
-1.0163E-07	7.1484E-08	3.3001E-06	3.3929E-07
-8.2571E-08	1.2717E-07	3.6471E-06	3.8542E-07
-8.8745E-08	1.4259E-07	3.3648E-06	-5.6689E-07
-5.7412E-08	1.5965E-07	2.6535E-06	-2.0807E-08
6.8198E-08	5.6825E-08	2.9164E-06	1.6001E-08
1.2051E-07	4.9465E-08	2.8971E-06	1.9580E-07
1.4367E-07	7.8951E-09	2.7647E-06	-4.2695E-07
8.4059E-08	-8.3502E-08	2.0545E-06	6.3019E-07
-1.7224E-08	-1.1709E-07	3.1778E-06	2.6686E-07
-1.4554E-07	-1.0244E-07	1.9285E-06	5.8334E-07
-1.6368E-07	-5.2349E-09	3.6080E-06	1.2241E-06
-1.4763E-07	1.2949E-07	3.2530E-06	-9.5952E-08
-1.0480E-07	1.9902E-07	3.0019E-06	-3.1398E-07
1.6650E-08	2.4166E-07	1.2286E-06	3.6650E-07
1.6101E-07	1.8332E-07	3.4909E-06	2.1935E-06
2.1192E-07	4.0449E-08	3.6165E-06	-2.0934E-07
1.6256E-07	-1.3546E-07	2.9997E-06	4.6806E-07
7.3776E-08	-1.8520E-07	2.3754E-06	1.2478E-07
2.4539E-08	-2.0587E-07	3.3815E-06	1.7387E-06
-1.3604E-07	-1.0769E-07	3.6161E-06	-3.4750E-07
-1.2476E-07	3.3663E-08	3.3571E-06	1.2513E-06
-4.8422E-08	1.0176E-07	4.3317E-06	-1.4421E-06
-5.6432E-08	1.9404E-07	1.1999E-06	-1.0368E-07
2.6019E-08	1.7787E-07	3.4698E-06	9.7001E-07
6.7760E-08	8.6929E-08	3.1742E-06	-3.1555E-07
1.2679E-07	7.7814E-09	2.6585E-06	-4.4245E-07
8.1308E-08	-9.6945E-08	2.3860E-06	1.8530E-07
2.9739E-08	-5.1055E-08	2.4895E-06	-6.4412E-07
4.1677E-09	-2.4654E-08	1.1267E-06	5.2551E-07
-5.0887E-08	-3.7670E-09	2.2295E-06	8.5706E-07
-4.8468E-09	1.7130E-08	1.8083E-06	1.6384E-06
2.5342E-08	1.2118E-08	3.6901E-06	1.1306E-06
9.6183E-08	-6.6253E-08	2.2080E-06	6.6028E-07
1.0140E-07	-7.5696E-08	3.7133E-06	1.2258E-06
3.7364E-08	-1.0636E-07	2.4442E-06	-2.6148E-07
-4.1482E-08	-1.1566E-07	2.4324E-06	1.6307E-06
-1.6448E-07	-8.9715E-08	3.7568E-06	8.4135E-07
-2.1379E-07	-6.8119E-09	3.1139E-06	-1.6561E-07
-1.6416E-07	4.5155E-08	2.0985E-06	5.7581E-07
-1.1724E-07	9.7598E-08	3.2013E-06	9.2088E-07
-7.4316E-09	1.4254E-07	2.4205E-06	2.3495E-07
7.1958E-08	4.1917E-08	2.8750E-06	1.3019E-06
1.1865E-07	2.8618E-08	3.1268E-06	1.6879E-07
7.0419E-08	-5.5992E-08	2.3138E-06	8.8226E-07
-2.2441E-08	-1.3555E-07	3.5429E-06	7.5780E-07
-5.5772E-08	-6.6083E-08	2.1945E-06	-5.0861E-07
-1.0291E-07	-8.5777E-08	1.6054E-06	1.8490E-06
-1.1584E-07	-1.0794E-08	3.6667E-06	1.2010E-06
-5.9654E-08	8.1212E-08	2.4932E-06	9.4015E-07
-1.5457E-08	1.0884E-07	3.7204E-06	1.1556E-06
7.9592E-08	9.6302E-08	2.8738E-06	3.4384E-07
2.9672E-08	6.4217E-08	3.1722E-06	7.5343E-07
9.5217E-08	5.1667E-08	2.6530E-06	7.8343E-07
6.8405E-08	-3.5109E-08	3.7949E-06	6.4129E-07
3.5073E-08	-3.2837E-08	2.1073E-06	6.7296E-08
1.5272E-08	1.0445E-09	3.5864E-06	1.3699E-06
-2.7940E-08	-5.1589E-08	2.3633E-06	-5.8615E-07
-3.0358E-08	-6.0401E-08	2.5104E-06	2.1068E-06
-2.6704E-08	-1.1570E-08	3.9166E-06	1.8648E-07
-8.7610E-08	3.9780E-08	2.7822E-06	4.3874E-07
-5.6782E-08	2.8095E-08	2.6425E-06	1.4943E-07
-8.3850E-08	4.3514E-08	2.9503E-06	1.3668E-06
-1.9736E-08	4.4526E-08	3.4691E-06	-5.3703E-07
1.1200E-08	5.2207E-08	1.7142E-06	6.9144E-07
7.8101E-08	7.4001E-08	3.2595E-06	8.1500E-07
7.8949E-08	6.8585E-08	2.9779E-06	2.7961E-07
8.5741E-08	-4.9469E-09	2.4543E-06	-8.0967E-07
8.1407E-08	-1.2046E-08	6.0484E-07	1.0584E-06
7.3619E-08	-5.0182E-08	2.8918E-06	1.7235E-06
3.1719E-08	-3.6447E-08	2.0089E-06	1.0772E-06
-4.3648E-09	-9.9869E-08	3.3292E-06	2.2030E-06
-3.5762E-08	-6.3987E-09	3.8465E-06	3.8403E-07
-2.0564E-08	-6.2229E-08	2.6190E-06	3.6125E-07
2.1199E-08	-6.1378E-08	3.1477E-06	9.4423E-07
1.8424E-08	-4.0627E-08	3.0260E-06	-2.6870E-07
5.9207E-09	-9.7290E-08	2.0227E-06	6.8643E-07
4.6213E-08	-4.5717E-08	3.1302E-06	1.9262E-07
-2.3418E-08	-2.6003E-08	1.3492E-06	-9.3245E-08
-2.7702E-08	-3.6469E-08	1.7240E-06	1.4224E-06
-4.6815E-08	-3.1175E-08	2.2881E-06	1.2856E-06
1.6453E-09	-2.4212E-08	2.2477E-06	8.8785E-07
-2.5832E-08	3.3695E-08	1.6355E-06	1.8374E-06
-1.3172E-08	-6.7809E-09	3.1795E-06	1.7974E-06
-1.6873E-08	2.9595E-08	2.1439E-06	1.5594E-06
-3.7951E-08	1.1103E-09	3.9613E-06	2.2896E-06
-5.8762E-09	-1.2766E-08	3.2370E-06	3.3370E-07
-7.4470E-08	1.9206E-08	3.2996E-06	1.6844E-06
-4.3287E-08	-1.7943E-08	3.7023E-06	6.4101E-08
-5.8725E-08	-3.6153E-09	2.6735E-06	6.7334E-07
-1.6025E-08	1.8956E-08	3.1234E-06	2.9590E-07
9.0798E-09	3.8349E-08	2.4451E-06	4.5559E-07
2.0406E-09	5.8113E-08	2.6338E-06	5.0032E-07
2.7274E-08	8.2967E-09	2.4484E-06	5.4559E-07
2.5298E-08	2.6267E-08	2.3724E-06	2.5834E-07
2.7532E-08	2.1525E-08	1.5855E-06	4.0104E-07
1.1144E-08	-5.0214E-09	1.2383E-06	1.4153E-06
1.5519E-08	-3.6846E-08	2.3135E-06	2.2055E-06
-7.1081E-08	3.9554E-08	2.7579E-06	1.4051E-06
-1.1524E-08	9.0855E-09	2.5871E-06	1.6585E-06
5.7317E-09	6.8102E-08	3.1192E-06	1.5447E-06
-9.3535E-10	4.6912E-08	3.5259E-06	8.8065E-07
2.4180E-08	1.3094E-08	2.3123E-06	-4.2920E-08
