jMRUI Data Textfile

Filename: Export_to_jmrui.txt

PointsInDataset: 2048
DatasetsInFile: 1
SamplingInterval: 0.250000
ZeroOrderPhase: 0E0
BeginTime: 0E0
TransmitterFrequency: 1.2326E8
MagneticField: 2.8936E0
TypeOfNucleus:  
NameOfPatient:  
DateOfExperiment:  
Spectrometer:  
AdditionalInfo: 
SignalNames:  


Signal and FFT
sig(real)	sig(imag)	fft(real)	fft(imag)
Signal 1 out of 1 in file
4.2509E-06	1.3690E-07	-7.2645E-07	3.7070E-06
3.6828E-06	-2.3596E-06	7.2809E-07	5.2256E-06
1.5143E-06	-3.3513E-06	3.0080E-06	2.8330E-06
-3.4247E-07	-3.5133E-06	5.6042E-07	2.1321E-06
-1.9279E-06	-2.1844E-06	1.7188E-06	3.3461E-06
-2.2467E-06	-8.1001E-07	1.7645E-06	2.1617E-06
-2.1926E-06	7.4540E-07	1.5785E-06	2.0276E-06
-1.0339E-06	1.4017E-06	7.8150E-07	1.9466E-06
-1.5001E-08	1.5154E-06	9.2239E-07	2.9148E-06
9.6628E-07	8.8396E-07	2.0309E-06	3.1039E-06
1.1987E-06	9.4904E-08	2.4471E-06	1.1894E-06
1.1515E-06	-6.9820E-07	1.4420E-07	1.7551E-06
4.4516E-07	-1.0136E-06	1.8869E-06	2.6648E-06
-1.1937E-07	-1.0966E-06	7.4549E-07	1.3094E-06
-7.0299E-07	-7.0560E-07	6.2326E-07	2.7580E-06
-8.3476E-07	-4.3720E-07	6.6591E-07	3.0638E-06
-8.6212E-07	-6.5080E-08	2.5138E-06	3.7149E-06
-6.3317E-07	1.0745E-07	2.2327E-06	1.4486E-06
-5.4223E-07	1.8953E-07	1.5804E-06	2.3938E-06
-3.5787E-07	2.2644E-07	1.5155E-06	1.4930E-06
-3.8653E-07	3.3771E-07	9.3410E-07	2.9318E-06
-2.9702E-07	4.8646E-07	2.2994E-06	2.2121E-06
-2.3079E-07	6.1447E-07	1.0615E-06	2.0980E-06
3.0414E-08	5.6120E-07	1.9224E-06	2.8224E-06
1.7135E-07	4.0446E-07	1.9327E-06	1.8305E-06
3.6824E-07	2.0009E-07	1.2631E-06	2.1624E-06
3.5309E-07	-4.3559E-08	1.3169E-06	2.5595E-06
2.0571E-07	-2.5044E-07	2.0214E-06	3.3206E-06
-7.0080E-08	-2.2777E-07	3.1983E-06	1.5513E-06
-1.9083E-07	-8.8307E-08	6.9869E-07	1.3299E-06
-3.6062E-07	2.3600E-07	2.0270E-06	2.6787E-06
-2.4552E-07	5.4278E-07	7.6681E-07	1.2222E-06
-8.7260E-09	7.1895E-07	1.0320E-06	4.0111E-06
2.6486E-07	6.3989E-07	2.7787E-06	2.1229E-06
4.4771E-07	4.3187E-07	1.0304E-06	2.4818E-06
5.6216E-07	1.9813E-07	2.2089E-06	2.9355E-06
5.2147E-07	-1.8545E-08	1.7691E-06	2.5805E-06
4.5717E-07	-1.1953E-07	2.5212E-06	2.9088E-06
3.5189E-07	-1.5184E-07	2.0276E-06	1.9176E-06
2.9196E-07	-2.1830E-07	1.8837E-06	3.3236E-06
1.8724E-07	-1.6693E-07	3.3279E-06	2.1322E-06
2.3861E-07	-2.5579E-07	1.6239E-06	2.0067E-06
1.8638E-07	-3.2435E-07	2.9262E-06	2.5262E-06
8.1203E-08	-4.8744E-07	1.7291E-06	1.4543E-06
-1.1703E-07	-4.1533E-07	2.0206E-06	2.7075E-06
-2.6132E-07	-4.1937E-07	1.6582E-06	2.3250E-06
-3.0180E-07	-1.9461E-07	2.9426E-06	3.4512E-06
-2.9438E-07	-3.0056E-08	2.6936E-06	1.2024E-06
-1.8479E-07	1.2032E-07	1.7112E-06	2.9534E-06
7.0152E-09	1.2020E-07	2.9576E-06	2.3564E-06
1.2636E-07	4.1308E-08	2.7731E-06	2.5759E-06
1.7856E-07	-1.2099E-07	3.0406E-06	1.1629E-06
1.0281E-07	-2.3391E-07	1.1499E-06	2.3282E-06
-7.8250E-08	-3.6478E-07	3.3351E-06	3.2774E-06
-2.6036E-07	-2.7495E-07	3.3464E-06	1.3208E-06
-3.8346E-07	-9.3632E-08	2.0789E-06	1.7099E-06
-3.9976E-07	1.1231E-07	2.8770E-06	2.3969E-06
-2.4451E-07	2.1118E-07	2.9228E-06	1.2247E-06
-3.9812E-08	2.7245E-07	1.9965E-06	1.7627E-06
1.1707E-07	1.4189E-07	2.6444E-06	1.9915E-06
1.3984E-07	-4.5367E-08	2.4044E-06	1.5630E-06
1.9193E-07	-1.4027E-07	2.0444E-06	2.0003E-06
-1.8337E-08	-2.2580E-07	2.7878E-06	2.4568E-06
-9.7635E-08	-2.2047E-07	3.2477E-06	1.3426E-06
-2.1109E-07	2.5852E-09	1.9413E-06	1.0205E-06
-1.9531E-07	1.5246E-07	1.9877E-06	2.2937E-06
-1.2798E-07	2.4855E-07	2.7520E-06	1.5866E-06
3.4610E-08	2.2620E-07	1.7118E-06	2.0083E-06
1.3046E-07	2.0415E-07	3.0821E-06	2.4286E-06
1.4980E-07	7.1606E-08	2.9150E-06	1.6240E-06
8.9372E-08	-1.5187E-08	3.4643E-06	6.6645E-07
-1.2085E-09	-5.2869E-08	3.8683E-07	2.7898E-07
-9.6924E-08	-3.6417E-08	1.9097E-06	3.5541E-06
-8.2724E-08	7.3500E-08	2.7296E-06	1.0348E-06
-3.7572E-08	1.8667E-07	1.5527E-06	2.2801E-06
3.5883E-08	1.4372E-07	2.1309E-06	1.8963E-06
1.1834E-07	2.3259E-07	1.9373E-06	2.9677E-06
1.8640E-07	7.5609E-08	3.1166E-06	2.6582E-06
1.3889E-07	-2.1263E-08	3.8456E-06	2.1467E-06
7.7742E-08	-1.1503E-07	2.8575E-06	2.4800E-07
-8.9853E-10	-8.5909E-08	1.8508E-06	2.0757E-06
-3.4546E-08	-2.2647E-08	3.0947E-06	1.2179E-06
-4.7563E-08	6.0265E-08	1.8688E-06	1.0661E-06
4.9679E-08	9.7420E-08	1.3563E-06	1.5953E-06
1.5332E-07	1.3839E-07	2.1598E-06	2.9783E-06
1.8056E-07	9.3250E-10	2.6266E-06	1.4892E-06
2.1341E-07	-6.6345E-08	2.1315E-06	2.8828E-06
1.4577E-07	-2.0635E-07	3.4125E-06	1.4664E-06
-2.5322E-08	-2.2148E-07	2.0059E-06	2.2078E-06
-1.6100E-07	-2.1306E-07	3.6193E-06	1.6298E-06
-2.2249E-07	-9.9415E-08	1.9851E-06	1.3590E-06
-1.8577E-07	7.4495E-08	3.1022E-06	1.9882E-06
-5.3723E-08	2.1305E-07	2.4925E-06	8.9375E-07
1.1896E-07	1.9764E-07	1.9783E-06	1.8779E-06
2.6622E-07	1.1229E-07	3.2905E-06	1.7826E-06
2.4821E-07	-5.3346E-08	2.0929E-06	2.6296E-07
2.3701E-07	-1.3485E-07	1.6998E-06	2.1773E-06
8.4041E-08	-2.7003E-07	2.3665E-06	8.8143E-07
-6.7781E-08	-2.7491E-07	1.1845E-06	2.2197E-06
-1.7765E-07	-1.9239E-07	2.2430E-06	1.8219E-06
-2.2387E-07	-9.4620E-08	1.8990E-06	3.0049E-06
-2.4534E-07	-1.9857E-08	3.3923E-06	1.1351E-06
-2.2481E-07	6.7446E-08	5.9664E-07	2.4423E-06
-1.5450E-07	1.2546E-07	3.9393E-06	3.1010E-06
-7.5884E-08	1.0420E-07	2.4785E-06	1.4197E-06
-8.6726E-08	6.7313E-08	3.6562E-06	1.9034E-06
-7.7463E-08	8.9758E-08	1.6407E-06	3.4470E-07
-2.4745E-08	7.5120E-08	1.5518E-06	3.2011E-06
-2.4466E-08	9.2189E-08	3.7306E-06	2.8903E-06
5.4271E-08	1.0375E-07	4.2668E-06	7.1674E-07
6.1789E-08	5.8281E-08	1.3658E-06	2.4131E-07
7.5397E-08	-2.4431E-08	2.3450E-06	2.8135E-06
4.8190E-08	-7.4484E-08	3.2299E-06	6.4512E-07
-8.1043E-09	-9.4836E-08	1.1266E-06	1.2838E-06
-9.4752E-08	-4.7824E-08	2.1842E-06	2.6275E-06
-1.5866E-07	1.1155E-08	2.7092E-06	1.9166E-06
-1.3111E-07	1.0696E-07	2.6762E-06	2.0458E-06
-7.6437E-08	1.2991E-07	2.9227E-06	1.3198E-06
-3.1721E-08	2.2459E-07	1.8334E-06	1.6401E-06
7.5685E-08	1.4909E-07	2.8021E-06	2.4838E-06
1.4309E-07	5.5672E-08	3.2041E-06	1.3568E-06
1.4958E-07	-5.9425E-08	2.2746E-06	1.3581E-06
5.8247E-08	-7.0704E-08	2.8460E-06	1.9447E-06
2.5656E-09	-8.7628E-08	2.9502E-06	9.2446E-07
-8.5907E-08	-9.0374E-08	2.2096E-06	9.6820E-07
-9.8685E-08	-2.4458E-08	1.6226E-06	1.2212E-06
-6.7592E-08	1.3036E-07	2.3011E-06	2.2035E-06
-6.6551E-09	1.1796E-07	1.9921E-06	8.3089E-07
3.9788E-09	7.6230E-08	1.6122E-06	3.1719E-06
9.6591E-08	7.0450E-08	4.0125E-06	1.1193E-06
9.8734E-08	4.7179E-09	9.0398E-07	9.0307E-07
5.8564E-08	-1.4685E-08	2.1415E-06	2.6325E-06
1.4737E-09	-7.3522E-09	2.5943E-06	2.2685E-06
-2.1345E-08	-5.6104E-08	3.2111E-06	1.0433E-06
1.9312E-08	-2.5838E-08	9.4212E-07	1.4147E-06
7.5463E-08	-3.3676E-08	2.8140E-06	2.7996E-06
7.0363E-08	-4.1946E-08	2.4693E-06	9.4039E-07
8.3357E-08	-6.0684E-08	1.1824E-06	1.8284E-06
4.8878E-08	-8.8697E-08	2.0250E-06	3.6147E-06
5.0460E-08	-1.5470E-07	4.3412E-06	2.0239E-06
-6.0150E-08	-9.3426E-08	2.2861E-06	6.4460E-07
-1.0419E-07	-6.5092E-08	1.8759E-06	1.4201E-06
-1.0534E-07	2.3943E-08	1.3133E-06	2.7246E-06
-1.1041E-07	4.7198E-08	3.6863E-06	2.2195E-06
-8.8468E-08	1.1792E-07	1.0624E-06	1.3968E-06
4.0932E-09	4.7110E-08	3.0304E-06	3.8331E-06
6.6284E-08	4.5875E-08	3.2768E-06	1.7796E-06
6.7434E-08	4.0816E-08	3.9286E-06	2.1381E-06
2.5706E-08	-8.6829E-08	2.4228E-06	1.5267E-07
1.5815E-08	-1.0306E-07	2.4603E-06	2.7941E-06
-1.5344E-09	-9.9385E-08	3.5759E-06	2.3503E-07
-8.1742E-08	-3.3279E-08	8.7246E-07	1.1384E-06
-8.2353E-08	-4.7629E-08	1.9237E-06	2.5128E-06
-7.0555E-08	2.7678E-08	2.5885E-06	2.3270E-06
-4.8791E-08	8.4374E-08	2.4697E-06	1.7183E-06
1.2803E-09	8.6678E-08	2.0522E-06	2.3487E-06
2.6998E-08	7.1385E-08	2.7418E-06	2.8066E-06
-1.1322E-08	1.0975E-08	3.7671E-06	2.2737E-06
4.2437E-08	4.7507E-08	3.1116E-06	1.1915E-06
3.9748E-08	-6.5323E-08	3.0721E-06	1.6231E-06
2.2297E-08	-3.8536E-08	2.5549E-06	8.0064E-07
6.0653E-08	-3.0896E-08	2.1609E-06	1.8625E-06
-2.0672E-08	-7.8564E-09	2.5215E-06	1.5691E-06
-7.4472E-08	-2.4976E-08	2.6574E-06	1.9764E-06
-4.6436E-08	1.2800E-08	2.5098E-06	1.0291E-06
-3.6154E-08	4.5420E-08	1.9848E-06	2.1991E-06
-3.7678E-08	5.3841E-08	2.7723E-06	1.3360E-06
-4.6118E-09	6.0638E-08	1.3282E-06	2.2294E-06
4.6876E-08	7.6535E-08	3.1994E-06	2.8467E-06
2.7448E-08	8.7887E-08	2.7289E-06	1.7516E-06
4.7166E-08	2.0437E-08	3.1253E-06	2.6311E-06
8.6195E-08	2.9984E-08	3.9941E-06	1.3591E-06
3.5511E-08	9.5274E-09	2.5382E-06	5.6654E-07
9.3777E-08	-2.8726E-08	2.2078E-06	2.0618E-06
-1.6348E-08	-4.8437E-08	3.6528E-06	1.3786E-06
1.0870E-08	-2.4214E-08	2.1139E-06	3.4664E-07
-1.5937E-08	9.5013E-09	1.7221E-06	1.7228E-06
-1.0590E-08	-4.3578E-08	1.9738E-06	1.7460E-06
1.5359E-08	-4.1350E-08	2.0719E-06	2.6725E-06
-3.1520E-08	1.1832E-08	3.4518E-06	2.5036E-06
-1.1362E-08	-2.5536E-08	3.7776E-06	1.3539E-06
-1.8357E-09	-4.7678E-08	2.8739E-06	2.7957E-08
-7.5518E-09	-5.3090E-08	8.5207E-07	1.2230E-06
-1.1120E-11	-7.7525E-08	2.7292E-06	2.8124E-06
7.0397E-09	-2.2281E-08	2.8522E-06	6.3968E-07
6.8731E-09	-3.0562E-08	1.4680E-06	1.8615E-06
-9.0605E-09	-3.4221E-08	2.6368E-06	1.5475E-06
-3.4183E-08	-1.2542E-08	8.5242E-07	1.9673E-06
-4.6581E-08	-1.2358E-08	3.0323E-06	3.8517E-06
-2.1921E-08	1.2297E-08	3.7597E-06	1.4709E-06
-5.1513E-08	-1.6568E-08	3.0683E-06	1.7280E-06
-4.3402E-09	7.2080E-09	2.9711E-06	3.8556E-07
-5.6778E-08	-1.0357E-09	1.0467E-06	1.6239E-06
-2.2913E-08	3.2683E-08	2.6138E-06	2.5785E-06
-4.2007E-08	4.2327E-08	2.5067E-06	2.0911E-06
-3.5914E-08	2.8403E-09	3.4047E-06	2.2099E-06
-2.0091E-08	1.4373E-08	2.6998E-06	9.6170E-07
3.3016E-08	-1.0997E-08	2.2559E-06	2.5138E-06
1.8086E-08	1.2418E-08	4.1621E-06	1.8756E-06
1.5026E-08	3.0148E-08	3.0126E-06	3.4577E-07
-4.6602E-08	-1.2881E-08	2.5227E-06	1.1388E-06
-1.8898E-08	3.2876E-08	2.4749E-06	6.5922E-07
-2.5905E-08	2.0303E-08	1.9606E-06	1.1141E-06
-3.6592E-08	3.2935E-08	1.8504E-06	9.6570E-07
-4.4166E-09	-1.1488E-09	1.4355E-06	1.8795E-06
-1.8374E-09	2.4040E-08	2.2466E-06	1.9914E-06
4.4464E-08	7.9088E-09	2.5433E-06	1.9092E-06
1.2010E-08	-9.2348E-09	2.3594E-06	6.6746E-07
