jMRUI Data Textfile

Filename: Export_to_jmrui.txt

PointsInDataset: 2048
DatasetsInFile: 1
SamplingInterval: 0.250000
ZeroOrderPhase: 0E0
BeginTime: 0E0
TransmitterFrequency: 1.2326E8
MagneticField: 2.8936E0
TypeOfNucleus:  
NameOfPatient:  
DateOfExperiment:  
Spectrometer:  
AdditionalInfo: 
SignalNames:  


Signal and FFT
sig(real)	sig(imag)	fft(real)	fft(imag)
Signal 1 out of 1 in file
2.9353E-06	-1.0024E-06	-4.2420E-07	2.5938E-06
2.1595E-06	-2.2799E-06	1.9399E-06	1.0960E-06
9.0930E-07	-3.0108E-06	4.7515E-07	1.0289E-06
-6.1867E-07	-2.6633E-06	2.2482E-06	1.1536E-06
-1.5608E-06	-1.7637E-06	6.5188E-07	-3.7778E-07
-1.8743E-06	-6.7233E-07	8.2630E-07	1.7931E-06
-1.6731E-06	4.1686E-07	1.9150E-06	1.5570E-07
-8.6684E-07	9.1530E-07	-9.0913E-08	8.4259E-07
-6.4207E-08	9.5743E-07	1.6465E-06	2.4449E-06
6.2853E-07	4.7748E-07	2.7357E-06	9.7278E-07
7.7698E-07	1.7007E-08	2.2564E-06	8.9796E-08
7.1064E-07	-5.0946E-07	1.2962E-06	-1.8663E-07
1.4999E-07	-7.6436E-07	8.2080E-07	6.9895E-07
-2.7199E-07	-7.8786E-07	1.1108E-06	1.1965E-06
-6.6612E-07	-4.4698E-07	1.7488E-06	1.7654E-06
-6.3383E-07	-2.2427E-07	2.7353E-06	1.0146E-06
-6.5186E-07	9.1885E-09	2.0626E-06	4.4277E-07
-4.3410E-07	6.0443E-08	2.4339E-06	8.8292E-07
-3.4760E-07	1.1446E-07	2.4250E-06	-2.5645E-07
-3.1721E-07	1.2746E-07	1.2715E-06	5.0021E-07
-3.0531E-07	2.2689E-07	2.6876E-06	8.8842E-07
-3.2056E-07	2.9283E-07	2.1043E-06	-4.7355E-07
-3.4575E-07	4.6422E-07	1.5121E-06	6.9430E-07
-1.3010E-07	4.8834E-07	2.8503E-06	4.3702E-07
9.4215E-08	4.3496E-07	2.0617E-06	-8.8255E-07
2.5093E-07	2.5961E-07	1.1108E-06	1.3631E-07
2.5348E-07	5.5383E-08	1.8843E-06	1.9509E-07
1.9354E-07	-1.4302E-07	1.1334E-06	3.1937E-07
-5.0918E-08	-1.8794E-07	2.2162E-06	9.8968E-07
-1.5696E-07	-9.6244E-08	2.2139E-06	-2.8045E-07
-2.7961E-07	1.5854E-07	1.2707E-06	-2.8347E-08
-1.8177E-07	3.5979E-07	1.3015E-06	1.0050E-06
-2.0050E-08	5.3861E-07	2.7259E-06	7.8391E-07
1.9863E-07	4.8647E-07	1.8908E-06	-3.4671E-07
3.6174E-07	3.7916E-07	1.6200E-06	4.7598E-07
4.3783E-07	1.2381E-07	1.6308E-06	5.8489E-07
4.2134E-07	1.5417E-08	2.4431E-06	1.0154E-06
3.6222E-07	-1.3070E-07	2.4208E-06	-5.5579E-08
2.1912E-07	-1.4625E-07	1.9476E-06	4.4691E-07
2.1882E-07	-1.8788E-07	2.5488E-06	6.7739E-07
1.5739E-07	-1.7037E-07	3.3543E-06	-3.9764E-07
1.8595E-07	-1.6219E-07	1.4279E-06	-1.3895E-06
1.3844E-07	-2.2121E-07	1.0957E-06	4.5835E-07
1.0698E-07	-3.0038E-07	1.7487E-06	6.0425E-07
-4.6611E-08	-3.8311E-07	2.6192E-06	5.1550E-07
-8.5243E-08	-3.3361E-07	1.7487E-06	-3.3086E-07
-1.9599E-07	-1.9452E-07	2.3038E-06	8.9021E-07
-2.2103E-07	-9.1592E-08	2.3991E-06	-2.5672E-07
-1.1317E-07	2.7270E-08	2.8653E-06	3.4226E-07
-1.1378E-08	5.9495E-08	2.2089E-06	-1.6132E-06
9.2945E-08	4.8414E-08	1.3762E-06	1.8764E-07
6.3219E-08	-9.2631E-08	1.7778E-06	-9.8041E-07
8.3803E-08	-1.2559E-07	1.0519E-06	8.9538E-07
-7.3467E-08	-1.4583E-07	2.6535E-06	-6.9591E-07
-1.6299E-07	-1.6129E-07	3.3308E-07	1.5504E-07
-2.1040E-07	-7.3176E-08	2.2533E-06	9.2074E-07
-2.5513E-07	1.0017E-07	1.9608E-06	3.9724E-07
-1.6972E-07	1.5291E-07	2.7131E-06	-9.6865E-08
-4.9659E-08	1.5893E-07	1.4727E-06	-3.7217E-07
1.1963E-07	8.8686E-08	1.9899E-06	2.0226E-07
1.1506E-07	-5.0909E-08	1.7398E-06	-1.7106E-07
1.1219E-07	-1.5412E-07	1.5397E-06	-5.9898E-08
-1.8568E-08	-1.9218E-07	1.4724E-06	5.0900E-07
-1.8174E-07	-1.6757E-07	1.7146E-06	3.5079E-08
-2.2000E-07	-1.3292E-08	9.8668E-07	1.2763E-06
-1.9852E-07	1.6334E-07	3.0052E-06	1.3065E-06
-1.0406E-07	2.5192E-07	2.6279E-06	6.0204E-07
5.2488E-08	2.1379E-07	3.8745E-06	7.4613E-08
8.5867E-08	1.6763E-07	2.2464E-06	-1.6306E-06
1.3421E-07	1.0270E-07	1.4530E-06	-1.7883E-07
6.8614E-08	-2.9743E-08	1.8925E-06	-1.4142E-07
3.0556E-08	-4.4707E-08	1.8684E-06	-9.7922E-08
-8.6842E-08	-2.4513E-08	1.6693E-06	-2.7885E-07
-8.5514E-08	5.1557E-08	1.1326E-06	1.6592E-07
-5.2779E-08	8.9520E-08	1.5560E-06	1.1535E-06
1.3838E-09	1.5787E-07	2.4385E-06	9.4065E-07
1.2827E-07	1.7138E-07	2.8548E-06	1.0166E-06
1.7476E-07	5.7873E-08	3.7746E-06	-4.2808E-07
1.6138E-07	1.3309E-08	1.7027E-06	-1.0493E-06
1.0855E-07	1.1408E-09	2.1094E-06	6.3986E-07
1.9197E-08	-2.4878E-08	2.9219E-06	-3.8362E-07
1.0903E-08	4.2790E-08	1.9642E-06	-7.0974E-07
-2.3949E-08	4.8232E-08	1.5621E-06	2.7531E-08
1.5024E-08	1.2209E-07	2.1658E-06	7.5724E-07
9.1886E-08	6.4082E-08	3.2336E-06	3.1022E-07
1.6837E-07	-3.4900E-08	2.8696E-06	-7.0166E-07
1.2822E-07	-9.3988E-08	2.8064E-06	-2.6766E-07
1.5156E-07	-1.5909E-07	3.1167E-06	-1.6940E-06
-2.2614E-08	-2.0066E-07	9.0577E-07	-1.4281E-06
-1.1272E-07	-1.5553E-07	1.8393E-06	3.0238E-07
-1.4438E-07	-1.8593E-08	2.7418E-06	-9.8402E-07
-2.0218E-07	6.6536E-08	1.2558E-06	-1.6163E-06
-4.8277E-08	1.1876E-07	8.0188E-07	6.3826E-08
1.1948E-07	1.8195E-07	2.1765E-06	-3.2926E-07
2.5621E-07	1.0347E-07	8.3845E-07	-5.3244E-07
2.3321E-07	-1.3204E-08	1.8935E-06	6.3645E-07
1.6126E-07	-1.4737E-07	1.8699E-06	-4.8909E-07
8.0494E-08	-1.8526E-07	2.0309E-06	3.0259E-07
-3.9203E-08	-2.2040E-07	2.2821E-06	-1.3162E-06
-1.5688E-07	-1.7541E-07	1.6208E-07	-4.4301E-07
-1.9305E-07	-5.9748E-08	1.5291E-06	1.2754E-06
-1.9872E-07	2.7100E-10	2.7317E-06	2.5564E-07
-1.0875E-07	5.9512E-08	2.1439E-06	-6.8848E-07
-9.7589E-08	9.1080E-08	1.5706E-06	-1.0180E-07
-6.0743E-08	1.0109E-07	2.1877E-06	-3.1659E-07
-6.0514E-08	6.9925E-08	1.2807E-06	-3.6558E-07
-1.1766E-07	3.4243E-08	2.1984E-06	3.0641E-07
-1.9229E-08	5.3009E-08	1.7842E-06	-1.0564E-06
-3.3446E-09	9.2688E-08	9.0683E-07	1.7881E-07
3.3816E-09	8.4750E-08	1.9254E-06	3.1387E-07
-2.7804E-08	8.3180E-08	1.8401E-06	3.6923E-08
8.3493E-09	5.0161E-08	1.9249E-06	-7.7182E-08
4.6176E-08	-3.6902E-08	1.6919E-06	-5.2980E-08
1.7865E-08	-5.3352E-08	1.9235E-06	1.9243E-07
-7.1962E-08	-4.0220E-08	2.2019E-06	-4.0779E-07
-1.3112E-07	1.4342E-08	9.9210E-07	-4.1168E-07
-1.1696E-07	6.7808E-08	1.6931E-06	9.5878E-07
-6.0270E-08	1.3051E-07	2.1437E-06	-1.8287E-08
-2.7244E-08	1.4959E-07	2.1026E-06	7.9244E-07
1.1232E-07	8.9064E-08	3.2239E-06	-4.9097E-07
1.5955E-07	4.5723E-08	1.8134E-06	-1.1392E-06
1.0914E-07	-2.2150E-08	9.9654E-07	-8.4061E-07
8.7927E-08	-6.7110E-08	5.5469E-07	1.1278E-06
8.1759E-10	-1.0854E-07	3.2252E-06	1.0208E-06
-1.0492E-08	-8.3785E-08	2.1649E-06	-8.2643E-07
-8.2111E-08	-1.4897E-08	1.8218E-06	4.8866E-07
-4.3628E-08	4.0631E-08	2.8057E-06	1.5282E-07
1.7903E-08	3.3606E-08	2.9137E-06	-5.5086E-07
3.6801E-08	8.1928E-08	2.3396E-06	-1.3775E-06
9.4602E-08	4.7674E-08	1.3150E-06	-9.8819E-07
4.1400E-08	-2.9722E-09	1.4314E-06	-4.6113E-07
5.6249E-08	-3.0726E-08	1.1786E-06	-1.6586E-07
1.3670E-09	-7.3563E-08	2.0101E-06	3.7700E-07
7.5094E-09	-2.5242E-08	2.0149E-06	-5.8950E-07
-8.1248E-09	3.6596E-08	1.7485E-06	-1.7813E-08
-9.2154E-09	-2.6911E-08	1.9435E-06	-4.8464E-07
2.7604E-08	-3.5557E-08	1.9669E-06	1.7674E-07
8.0903E-08	-7.0868E-08	2.4851E-06	-1.0731E-06
6.1855E-08	-7.7524E-08	1.2908E-06	-3.5799E-07
-1.0597E-08	-1.2664E-07	2.5777E-06	-9.5782E-07
-9.9610E-08	-8.2994E-08	6.7956E-07	-1.2033E-06
-8.5580E-08	-6.6654E-08	1.6545E-06	-2.5322E-07
-1.1070E-07	-6.3888E-09	8.2794E-07	-1.0360E-06
-8.3222E-08	4.2325E-08	9.1955E-07	1.8723E-08
-3.4879E-08	5.8799E-08	9.2329E-07	6.7813E-08
-4.1627E-08	9.9783E-08	1.9160E-06	2.3651E-07
6.4996E-08	1.6414E-08	9.6916E-07	-7.9208E-07
2.8863E-08	-1.6438E-08	1.1218E-06	7.3955E-07
-2.3084E-08	-2.4860E-08	1.8111E-06	-2.1021E-07
4.2480E-09	-3.1068E-08	1.3825E-06	-1.2766E-09
-5.1632E-08	-1.1554E-08	1.3249E-06	-3.7062E-07
-4.2689E-08	-6.5760E-08	1.0183E-06	3.6552E-07
-3.0225E-08	-8.9036E-09	1.7425E-06	2.1071E-07
-4.3149E-08	5.4740E-08	1.6812E-06	-2.4672E-07
-2.8545E-08	8.7222E-08	8.3801E-07	-6.3277E-07
-3.1553E-08	1.1856E-07	4.0032E-07	7.9727E-07
5.7069E-08	5.2479E-08	1.5577E-06	1.0728E-06
2.5186E-08	5.0103E-08	2.1955E-06	7.7325E-07
3.4212E-08	-3.3918E-09	2.0776E-06	-5.6751E-07
2.2135E-08	1.9785E-08	6.6543E-07	2.0257E-07
3.1178E-09	3.0590E-09	1.6964E-06	8.8024E-07
8.9099E-09	2.0644E-08	1.7889E-06	5.9590E-07
-3.3905E-08	-4.5453E-08	2.3043E-06	3.5592E-07
-1.3761E-08	-1.0559E-08	1.8245E-06	-3.7397E-08
-3.3342E-08	-1.2698E-08	2.0270E-06	3.2337E-08
-5.6120E-08	2.8318E-08	1.3697E-06	-2.4634E-07
-3.9163E-08	2.2654E-08	1.4940E-06	6.2221E-07
1.1858E-08	4.7421E-08	1.9209E-06	5.0732E-07
1.6268E-08	4.6855E-08	2.5821E-06	6.3079E-07
8.9001E-08	4.9608E-08	2.9422E-06	-9.4286E-07
4.1987E-08	8.2637E-08	1.1654E-06	-1.1458E-06
6.5515E-08	2.4866E-08	1.4107E-06	-2.1171E-07
9.6107E-09	-1.7529E-08	8.8860E-07	-7.2937E-07
2.5841E-08	-2.2876E-08	9.2301E-07	6.8867E-07
4.1547E-08	-8.8842E-08	1.6000E-06	-4.8065E-07
4.9067E-08	-8.8988E-09	1.1400E-07	7.1947E-07
-3.1232E-08	-2.5688E-08	2.2362E-06	9.5691E-07
-1.7058E-08	-6.1903E-08	1.0813E-06	9.4835E-08
1.8299E-08	-3.3884E-08	2.1280E-06	8.7277E-07
2.2876E-08	-4.0059E-08	1.2351E-06	-3.1939E-07
2.9302E-09	-2.7796E-08	1.5644E-06	1.1457E-06
-7.8795E-09	-4.3151E-08	1.6390E-06	2.5382E-08
-9.4044E-09	-1.2725E-08	1.5244E-06	1.4769E-06
-2.2108E-08	-7.4214E-08	2.9671E-06	5.2784E-07
-1.2241E-09	-3.7170E-08	2.5952E-06	-8.8805E-08
-4.6393E-08	-5.2880E-08	2.1769E-06	-1.0840E-06
-3.8137E-08	-2.3182E-08	8.5000E-07	-3.8624E-07
-4.4626E-08	2.1365E-08	1.3507E-06	1.1715E-07
-3.1911E-08	-2.8656E-08	1.0822E-06	1.1607E-07
-4.8691E-08	-3.5040E-08	1.0887E-06	6.2654E-07
-1.9842E-08	-1.0821E-08	1.6659E-06	8.3814E-07
-1.8938E-08	2.5012E-08	1.4891E-06	4.5327E-07
-6.3274E-08	-4.1519E-09	1.8553E-06	1.2915E-06
-6.3461E-09	3.9291E-08	2.5452E-06	2.1988E-07
-1.6065E-09	2.0920E-08	1.6749E-06	3.3525E-07
-2.2561E-08	3.3748E-08	1.9296E-06	6.0702E-07
-1.7942E-08	4.0918E-08	2.5558E-06	1.1236E-06
5.9780E-08	-2.4626E-08	3.2552E-06	-7.1787E-07
-7.9317E-09	-1.2472E-08	1.1626E-06	2.0847E-08
4.9001E-08	3.5048E-09	3.7671E-06	3.7120E-07
5.1107E-09	-6.7812E-09	1.8380E-06	-2.4535E-06
2.3455E-08	4.1096E-08	8.0292E-07	-2.5387E-10
-8.3874E-09	-4.1518E-10	1.6409E-06	-9.6702E-07
2.0115E-09	2.3370E-08	3.0895E-07	9.4277E-08
2.4458E-08	-1.9914E-08	1.7272E-06	3.0888E-07
4.0280E-08	3.0679E-08	1.1022E-06	-1.5031E-07
