jMRUI Data Textfile

Filename: Export_to_jmrui.txt

PointsInDataset: 2048
DatasetsInFile: 1
SamplingInterval: 0.250000
ZeroOrderPhase: 0E0
BeginTime: 0E0
TransmitterFrequency: 1.2326E8
MagneticField: 2.8936E0
TypeOfNucleus:  
NameOfPatient:  
DateOfExperiment:  
Spectrometer:  
AdditionalInfo: 
SignalNames:  


Signal and FFT
sig(real)	sig(imag)	fft(real)	fft(imag)
Signal 1 out of 1 in file
2.4800E-06	-1.1673E-06	-2.9831E-07	-2.0676E-07
1.8224E-06	-2.1455E-06	1.4547E-06	5.8390E-07
5.0557E-07	-2.3162E-06	8.9464E-07	-1.1273E-06
-3.7304E-07	-2.1165E-06	3.5045E-07	2.3692E-07
-1.0926E-06	-1.3693E-06	1.4493E-06	-1.0040E-07
-1.3576E-06	-5.1764E-07	1.0768E-06	-7.7907E-07
-1.0792E-06	1.5344E-07	3.0327E-07	-5.2355E-07
-5.6264E-07	5.5663E-07	8.8478E-07	3.2105E-07
3.5259E-08	5.1669E-07	1.1027E-06	-6.4729E-07
3.2315E-07	2.1160E-07	3.7349E-07	5.1303E-08
4.8383E-07	-2.4980E-07	1.2738E-06	-3.5819E-08
2.7658E-07	-4.5199E-07	5.5442E-07	-1.9456E-07
9.0489E-09	-6.4903E-07	1.2261E-06	4.7100E-07
-3.4142E-07	-4.9695E-07	1.5352E-06	-2.6068E-07
-4.8112E-07	-2.8698E-07	1.4017E-06	-6.2896E-07
-4.3712E-07	-5.6649E-08	5.4718E-07	-9.8117E-07
-4.1522E-07	4.0692E-09	1.9555E-07	3.4088E-09
-3.1132E-07	6.8495E-08	4.8894E-07	2.5352E-07
-2.1714E-07	7.2746E-10	9.5000E-07	8.5401E-07
-2.5670E-07	7.2601E-09	1.7428E-06	8.5933E-08
-3.5190E-07	2.2801E-08	9.8421E-07	-2.4800E-07
-3.9902E-07	1.5279E-07	9.8825E-07	3.6610E-07
-3.5408E-07	2.4008E-07	1.8469E-06	3.0216E-07
-1.7719E-07	3.7614E-07	1.3193E-06	-1.0531E-06
-2.2820E-08	2.8692E-07	6.1459E-08	5.4141E-07
1.1145E-07	2.2924E-07	2.3858E-06	7.6981E-07
1.8638E-07	5.3894E-08	1.4694E-06	-1.1186E-06
1.9697E-07	-7.6439E-08	6.3287E-07	9.8883E-08
1.8759E-09	-9.8491E-08	1.3800E-06	4.8017E-07
-6.7852E-08	2.9353E-08	2.1877E-06	2.1191E-07
-2.0348E-07	1.4410E-07	2.0371E-06	-1.1261E-06
-1.5125E-07	3.3406E-07	6.9900E-07	-8.8934E-07
-6.9894E-09	3.9186E-07	1.1353E-06	2.1539E-08
1.9835E-07	3.5149E-07	1.5168E-06	-7.1621E-07
2.7892E-07	2.7123E-07	6.9038E-07	-6.1274E-07
3.4387E-07	1.1425E-07	1.1171E-06	-1.9922E-07
3.2892E-07	-8.2181E-08	9.7005E-07	-7.2970E-07
2.4865E-07	-9.3457E-08	3.4408E-07	-4.6532E-07
1.6171E-07	-1.2926E-07	4.0015E-07	3.9644E-07
1.0837E-07	-4.7451E-08	1.2562E-06	2.6118E-07
7.1139E-08	-6.7810E-08	7.8544E-07	7.4300E-08
1.3159E-07	-6.2109E-08	1.4798E-06	3.8792E-07
9.6641E-08	-1.3085E-07	9.0749E-07	-4.1976E-07
1.7604E-07	-2.1913E-07	8.7058E-07	1.0189E-06
4.2786E-08	-3.0050E-07	2.4955E-06	4.1300E-07
-1.9931E-08	-2.8718E-07	2.0919E-06	-9.2822E-07
-1.4244E-07	-1.8814E-07	1.1020E-06	-1.0510E-06
-1.2890E-07	-9.5699E-08	9.5822E-07	-5.9865E-07
-1.5217E-07	-2.8601E-08	5.6562E-07	-8.6549E-07
-8.4495E-10	9.6814E-08	1.0331E-07	1.9763E-07
5.3684E-08	6.6404E-08	1.1759E-06	4.8796E-07
7.1534E-08	-1.7432E-08	1.3194E-06	-2.5114E-07
3.3995E-08	-1.1513E-07	5.6002E-07	-4.2302E-07
7.1670E-09	-9.6588E-08	5.0370E-07	7.8727E-07
-9.3076E-08	-9.3799E-08	2.0005E-06	3.3472E-07
-1.5801E-07	-1.0560E-08	8.5783E-07	-7.8416E-07
-1.8623E-07	4.2872E-08	7.4689E-07	6.8283E-07
-8.9743E-08	9.9940E-08	1.6710E-06	-3.5483E-07
-2.2401E-08	1.3309E-07	9.7802E-08	7.8500E-08
8.1831E-08	4.2130E-08	1.8034E-06	1.0396E-06
6.0079E-08	-3.3971E-08	1.4128E-06	-7.5207E-07
2.8093E-08	-1.3245E-07	7.5059E-07	5.0370E-07
-7.5673E-08	-1.1119E-07	1.6579E-06	6.3618E-08
-1.3575E-07	-7.1073E-08	1.1771E-06	1.1090E-07
-2.1115E-07	9.8033E-09	1.7885E-06	-5.5146E-08
-1.5225E-07	1.3248E-07	1.2452E-06	-7.2751E-07
-1.0562E-07	2.1464E-07	5.8705E-07	-1.5562E-07
3.7135E-09	1.9432E-07	1.3956E-06	3.1019E-07
8.0306E-08	1.8232E-07	1.1582E-06	-8.0500E-07
1.3172E-07	5.6634E-08	4.3649E-07	1.1548E-07
1.2344E-07	-1.6086E-08	1.0443E-06	-2.3272E-07
5.4376E-08	-2.5972E-08	1.7213E-08	2.9499E-07
-4.8522E-08	-4.3274E-09	1.1731E-06	9.9040E-07
-9.0024E-08	3.6412E-08	1.1266E-06	3.1434E-07
-3.1599E-08	8.6544E-08	1.1544E-06	8.2539E-07
2.4421E-08	1.1950E-07	1.9879E-06	6.1785E-07
1.2224E-07	1.0013E-07	1.5834E-06	-5.2855E-07
1.1042E-07	6.8114E-08	6.8595E-07	5.8388E-07
9.5778E-08	1.0962E-08	2.1296E-06	5.6248E-07
5.9007E-08	-5.0290E-08	1.7474E-06	5.3032E-08
2.0692E-08	-1.1944E-08	2.4127E-06	-7.0898E-07
1.9099E-08	3.6844E-08	2.3488E-07	-1.0688E-06
-3.3297E-08	7.8285E-08	1.2209E-06	8.0145E-07
4.3753E-08	1.1148E-07	1.4430E-06	-2.9409E-07
1.4566E-07	8.5280E-08	2.0564E-06	-3.8898E-08
1.1551E-07	-1.8142E-08	7.8856E-07	-1.8621E-06
1.6497E-07	-5.4629E-08	5.5886E-08	5.9937E-07
1.1899E-07	-1.2924E-07	1.4446E-06	-4.6305E-07
-2.6933E-09	-1.6816E-07	5.4870E-07	-1.2216E-07
-8.9571E-08	-1.2635E-07	5.7453E-07	-1.0498E-06
-1.5100E-07	-5.7056E-08	-1.1311E-06	6.9683E-07
-1.3310E-07	5.0145E-08	7.2837E-07	1.2824E-06
-4.9420E-08	1.6136E-07	4.7094E-07	1.6750E-06
1.0027E-07	1.2265E-07	2.4091E-06	9.3975E-07
1.3653E-07	3.9802E-08	4.3228E-07	5.0302E-07
2.0700E-07	-1.2200E-08	2.6415E-06	1.8185E-06
1.7209E-07	-1.5810E-07	2.1431E-06	-8.0611E-07
9.7206E-08	-1.8497E-07	1.4677E-06	1.3544E-07
-7.4458E-08	-1.8865E-07	1.0163E-06	-6.5521E-07
-1.5543E-07	-1.5135E-07	7.7105E-07	8.3558E-07
-1.8581E-07	-1.3232E-07	1.4056E-06	8.8961E-08
-1.8028E-07	-1.8345E-08	1.0915E-06	1.0341E-06
-1.2990E-07	1.2629E-07	2.3913E-06	-2.2319E-08
-3.7294E-08	5.4811E-08	7.6173E-07	-3.9125E-07
-3.7358E-08	8.1323E-08	1.1489E-06	6.4015E-07
-3.6354E-08	3.1955E-08	1.6357E-06	3.5527E-07
-4.1611E-08	1.8081E-08	1.5261E-06	-4.7238E-07
-5.5623E-08	1.8683E-08	1.2069E-07	1.0247E-07
-3.8408E-08	1.0524E-07	1.2930E-06	1.3488E-06
-1.2989E-08	4.4223E-08	1.8075E-06	2.6224E-07
8.0215E-09	5.7700E-09	1.2042E-06	1.0032E-07
6.9202E-08	1.1290E-08	8.0776E-07	8.2005E-07
7.9452E-08	2.7195E-08	2.2384E-06	1.1635E-06
-2.4313E-09	-3.1104E-08	1.7505E-06	-2.3396E-07
-1.4037E-07	-4.5923E-08	1.8971E-06	9.4463E-07
-3.6112E-08	-3.7554E-08	2.5102E-06	-1.0131E-06
-1.0797E-07	6.9289E-08	2.8070E-07	-2.5955E-07
-3.7356E-08	7.6667E-08	1.6652E-06	7.8620E-07
-2.0020E-08	8.7867E-08	1.8343E-06	-1.0127E-08
2.4225E-08	1.1550E-07	1.7690E-06	-4.8227E-07
7.0772E-08	3.4762E-08	8.0595E-07	-4.2967E-07
6.4701E-08	1.4676E-08	1.1230E-06	2.4875E-07
4.8387E-08	-7.0051E-08	1.2525E-06	2.5303E-08
4.3377E-08	-1.3864E-08	1.2828E-06	-1.1623E-07
-2.3780E-08	-8.1703E-08	7.8614E-07	-2.5267E-07
-4.1965E-08	-2.2527E-08	4.4803E-07	4.1822E-07
-2.3857E-08	3.7175E-08	1.2747E-06	1.0212E-06
-4.0059E-08	2.9178E-08	1.5135E-06	-6.7405E-09
5.2458E-08	4.6322E-08	9.5684E-07	7.4817E-07
3.3858E-08	4.8609E-08	2.0709E-06	5.4129E-09
5.0044E-09	5.9088E-08	5.7022E-07	-2.4489E-07
4.2278E-08	-2.7965E-08	9.8372E-07	4.7772E-07
2.2256E-08	-3.6898E-08	6.7532E-07	9.0910E-07
2.2320E-08	3.3113E-09	2.2747E-06	7.6276E-07
9.1901E-09	9.6645E-09	9.2599E-07	-3.2063E-07
2.7242E-08	-1.5992E-08	1.6015E-06	8.4139E-07
4.0381E-08	-3.7630E-08	1.2284E-06	-6.1886E-07
3.1136E-08	-5.9844E-08	3.4409E-07	4.4013E-07
7.9501E-10	-8.0373E-08	6.4894E-07	1.2657E-06
-3.3051E-09	-4.8790E-08	2.5913E-06	9.2608E-07
-7.5584E-08	-3.7245E-08	1.3115E-06	-5.4892E-07
-7.1701E-08	-9.9863E-08	-2.1406E-07	1.6379E-06
-4.1848E-08	2.1780E-08	2.1707E-06	1.3643E-06
-7.2161E-08	4.9317E-08	1.5406E-06	9.7738E-07
-5.7163E-08	5.6081E-08	2.4729E-06	6.5890E-07
-2.7896E-08	1.6003E-08	1.5417E-06	-9.3083E-08
-3.5354E-08	1.7612E-08	1.3627E-06	6.3826E-07
7.8102E-09	-9.3070E-09	1.8802E-06	6.8534E-07
3.7661E-08	-3.7964E-08	1.9473E-06	6.5533E-08
-4.6340E-08	-5.1186E-08	1.4116E-06	1.3848E-07
-3.3898E-08	-3.8269E-08	1.5344E-06	2.4348E-07
-4.7542E-08	-8.7637E-09	1.4114E-06	3.2676E-07
-4.4854E-08	2.8258E-08	1.6588E-06	1.3027E-07
-3.0277E-08	-2.4564E-08	1.0460E-06	7.5117E-08
-4.3155E-08	-1.1293E-09	1.4442E-06	4.2476E-07
-1.1324E-08	4.4984E-08	6.0901E-07	-2.0367E-07
-2.3288E-10	6.8625E-08	4.7638E-07	1.9614E-06
4.8722E-08	2.3635E-08	2.8099E-06	1.0301E-06
4.5648E-08	3.2532E-08	1.3356E-06	4.8875E-08
4.5589E-08	9.0411E-09	1.7984E-06	6.2155E-07
3.3578E-08	-1.5096E-08	7.1429E-07	3.4886E-07
-2.5598E-08	-2.4748E-08	1.9743E-06	2.0903E-06
-3.3018E-08	7.0555E-09	2.7930E-06	-1.8532E-08
-2.2606E-08	9.5606E-09	1.5126E-06	3.7929E-07
-6.4020E-08	-1.3725E-08	2.1842E-06	3.6216E-07
-5.4051E-08	-3.0240E-08	1.7404E-06	5.8632E-08
-4.6786E-08	1.2745E-08	1.6189E-06	4.1348E-07
4.7384E-08	4.3636E-08	2.2938E-06	5.6515E-07
8.6085E-09	4.3845E-08	2.4392E-06	-6.3788E-07
-1.1122E-08	6.8124E-08	1.2185E-06	-1.0132E-06
7.8937E-08	5.3714E-08	3.2461E-07	-1.6255E-07
4.6142E-08	3.0342E-08	9.1075E-07	7.6116E-07
6.7684E-08	-5.4031E-08	9.8768E-07	5.4723E-07
8.5116E-08	-6.1705E-08	1.5598E-06	1.2200E-06
1.4443E-08	1.1332E-08	1.9924E-06	8.2406E-08
3.8976E-08	-3.0302E-08	1.2056E-06	1.0099E-07
1.3722E-08	-3.9284E-08	7.1004E-07	2.5616E-07
3.7986E-09	1.1155E-08	1.0465E-06	1.5998E-06
-1.6805E-10	-3.8827E-08	1.9151E-06	6.3252E-07
2.5141E-09	-3.9769E-08	1.2210E-06	1.5024E-06
1.1260E-08	-1.0088E-08	3.1487E-06	9.9795E-07
1.0371E-08	-4.0371E-08	2.1075E-06	-2.9993E-07
-7.2985E-09	-3.3485E-08	1.8620E-06	-1.4613E-07
1.3208E-08	-4.1400E-08	1.0500E-06	1.0996E-08
-3.7591E-08	-1.2671E-08	1.5401E-06	3.9215E-07
-2.8458E-08	-6.8218E-08	6.8702E-07	3.8233E-07
7.0555E-09	-4.3016E-08	1.5883E-06	1.5491E-06
-6.1172E-08	-4.0747E-08	1.8785E-06	8.5559E-07
-1.0127E-08	2.5710E-08	2.6799E-06	1.1412E-06
-5.0850E-08	3.8985E-08	2.3624E-06	-6.5366E-07
-2.7473E-08	1.0385E-08	1.2858E-06	3.1990E-07
-4.6656E-08	1.6213E-08	1.6468E-06	2.4015E-07
-3.0487E-08	4.1790E-08	1.8894E-06	9.8399E-07
-2.5608E-08	4.2056E-08	2.3073E-06	-5.5005E-07
8.2535E-09	1.8108E-08	9.4617E-07	8.1358E-07
-2.4717E-08	-2.8508E-08	3.2873E-06	-8.3895E-08
3.9441E-09	-2.1764E-08	5.8286E-07	-1.3063E-06
1.8260E-08	-2.5861E-08	9.1472E-07	5.2739E-07
-1.7016E-08	4.2036E-09	5.1546E-07	2.4917E-07
-2.5958E-08	-7.6995E-08	1.1632E-06	1.3901E-06
-2.2070E-08	3.6978E-09	1.2884E-06	1.1033E-06
1.4010E-08	4.2863E-10	2.5745E-06	1.5573E-06
-5.7883E-09	2.4748E-08	2.2873E-06	-2.8523E-07
-3.5976E-08	2.8811E-08	1.6690E-06	5.2015E-07
4.7921E-11	8.9457E-09	1.7549E-06	-3.0863E-08
1.3339E-08	1.4218E-08	1.5192E-06	6.2793E-07
