jMRUI Data Textfile

Filename: Export_to_jmrui.txt

PointsInDataset: 2048
DatasetsInFile: 1
SamplingInterval: 0.250000
ZeroOrderPhase: 0E0
BeginTime: 0E0
TransmitterFrequency: 1.2326E8
MagneticField: 2.8936E0
TypeOfNucleus:  
NameOfPatient:  
DateOfExperiment:  
Spectrometer:  
AdditionalInfo: 
SignalNames:  


Signal and FFT
sig(real)	sig(imag)	fft(real)	fft(imag)
Signal 1 out of 1 in file
4.4461E-07	3.3758E-07	-7.7560E-07	1.2477E-06
6.4992E-07	5.1358E-08	-8.0131E-07	9.2165E-07
7.0813E-07	-2.3012E-07	-5.0882E-08	1.2826E-06
2.5765E-07	-4.6522E-07	-4.7680E-07	4.0245E-07
3.9030E-08	-4.3539E-07	-3.6721E-07	1.5001E-06
-1.6613E-07	-3.2707E-07	1.2765E-07	4.2425E-07
-2.3107E-07	-1.5124E-07	-9.5889E-07	1.0685E-06
-1.4063E-07	-3.3420E-08	-2.0712E-07	1.5629E-06
-2.3077E-08	1.2119E-07	-6.3297E-08	1.9424E-06
1.8379E-07	1.0018E-07	1.4708E-06	1.7193E-06
1.8781E-07	-7.7802E-09	1.0960E-06	-6.3257E-08
1.6786E-07	-1.3401E-07	-2.2251E-07	3.0683E-07
1.1677E-07	-2.4556E-07	1.2420E-08	1.0994E-06
3.5492E-08	-3.2840E-07	5.6036E-07	9.9499E-07
-1.5786E-07	-1.6943E-07	3.9174E-07	4.8978E-07
-1.2972E-07	-8.9804E-08	-4.8410E-08	8.7809E-07
-1.1842E-07	-1.7974E-08	3.0821E-07	1.2509E-06
-1.2450E-08	4.1736E-08	8.8822E-07	1.2617E-06
6.5659E-09	7.5786E-08	8.8407E-07	3.3629E-07
3.8239E-08	-4.8541E-08	2.9050E-07	1.1526E-06
4.4327E-09	-9.7358E-08	1.6900E-06	4.4060E-07
-5.0841E-08	-1.3902E-07	-4.6436E-08	-1.5200E-07
-1.9678E-07	-8.3399E-08	7.1839E-07	9.5258E-07
-2.0275E-07	-3.0345E-08	2.6444E-07	2.3337E-07
-1.9370E-07	3.2841E-08	1.0605E-06	1.1466E-06
-1.0198E-07	6.2539E-08	1.0447E-06	-6.3814E-07
-7.9494E-08	9.2993E-08	-2.4152E-07	-7.6248E-08
3.2602E-08	4.1252E-08	-3.0084E-07	4.3357E-07
3.7065E-08	3.8755E-08	-5.4300E-08	8.9615E-07
-3.9124E-09	-1.0434E-08	-2.2474E-07	1.4044E-06
-9.5300E-08	-3.8038E-08	1.9177E-06	1.8335E-06
-1.1942E-07	2.9152E-08	1.1776E-06	-1.0760E-06
-1.5124E-07	8.6675E-08	-4.3143E-07	7.1387E-07
-1.4469E-07	1.5970E-07	4.7978E-07	6.1119E-07
-6.8012E-08	1.4610E-07	3.2550E-07	1.5501E-06
-1.3855E-08	1.7445E-07	1.8738E-06	8.0952E-07
5.6122E-08	1.2046E-07	1.2899E-06	-3.7703E-09
1.0040E-07	1.2988E-07	9.7923E-07	-4.8404E-07
4.6452E-08	1.0897E-07	2.3965E-07	-8.1987E-08
5.4675E-08	6.3410E-08	4.1816E-07	-3.0805E-08
3.7577E-08	7.7452E-08	2.1743E-07	2.2401E-07
6.8447E-08	8.5307E-08	1.3341E-07	8.9271E-08
7.8269E-08	3.5121E-08	3.0712E-07	8.8403E-07
7.8316E-08	4.1674E-08	6.8086E-07	-2.8261E-07
8.3914E-08	8.9615E-09	-7.3589E-07	8.1846E-07
1.1005E-07	-3.5669E-08	1.0894E-06	1.4142E-06
6.6402E-08	-3.5462E-08	1.1459E-06	2.6175E-07
1.0657E-07	-7.2406E-09	7.0840E-07	-1.2413E-07
2.0111E-09	-2.1253E-08	1.9278E-07	3.3804E-07
3.2042E-08	-3.6794E-08	4.0061E-07	2.6784E-07
3.4088E-08	-1.5930E-08	1.0894E-07	1.1856E-06
8.6815E-08	-1.5440E-09	1.7755E-06	7.4019E-07
7.3703E-08	-1.0097E-08	8.0424E-07	-2.7098E-07
9.3867E-08	-1.6571E-08	8.4858E-07	1.1152E-08
1.4998E-08	-5.6019E-08	4.1944E-08	-7.8742E-08
2.6983E-08	-1.0527E-07	6.3341E-07	1.0409E-06
-4.3514E-08	-5.5286E-08	1.5081E-06	1.2348E-07
-1.3342E-08	-1.8084E-08	6.5638E-07	-6.3382E-07
-3.7308E-08	1.3466E-08	1.8801E-07	2.9660E-07
-5.8131E-09	7.9661E-09	1.0733E-06	-1.5682E-07
3.4312E-08	9.8532E-09	-2.5038E-07	-3.9279E-07
1.0789E-07	-6.1336E-09	1.4167E-07	8.1186E-07
1.0261E-07	-7.2059E-08	5.7152E-07	8.1377E-07
4.4989E-08	-8.0420E-08	1.6854E-06	7.9683E-07
-2.5553E-08	-1.3876E-07	1.5460E-06	-8.7195E-07
-4.5762E-08	-8.2932E-08	3.3013E-07	-5.7399E-07
-7.4438E-08	-2.2501E-08	7.5777E-07	-7.4552E-08
-8.2167E-08	-5.6928E-08	9.8994E-07	-7.6033E-07
-1.0882E-07	-5.4181E-08	3.1389E-07	-1.2291E-06
-8.7082E-08	-4.7793E-08	-6.5259E-07	-1.1522E-06
-7.7134E-08	-1.0201E-08	-1.0742E-06	8.6471E-08
-4.6603E-08	-8.5219E-10	-5.1063E-07	1.4566E-07
-4.7224E-08	2.1541E-08	-1.0279E-06	1.1615E-06
-6.4141E-08	2.4899E-08	9.6882E-07	1.2742E-06
-3.7130E-08	-8.1265E-09	7.4970E-08	3.1494E-07
-2.9656E-08	1.1809E-08	1.3400E-06	1.1342E-06
-2.8462E-08	3.3235E-08	5.5700E-07	-1.1185E-06
5.5749E-09	5.5629E-08	-4.4412E-07	1.1781E-06
-4.1334E-08	4.3624E-08	1.7731E-06	2.5107E-07
-2.5796E-09	-4.7294E-09	1.5450E-07	-6.8592E-07
-1.5954E-08	-7.7768E-09	3.7470E-07	3.0808E-07
-4.9790E-08	-1.5637E-08	5.6986E-07	-3.6147E-07
-5.0861E-08	1.8835E-08	1.8799E-08	-2.2795E-07
-7.4757E-09	3.3644E-08	9.2825E-08	-2.4508E-07
-8.3237E-09	3.7407E-08	-6.5785E-07	5.2761E-08
2.9148E-08	2.1240E-08	2.0871E-07	9.5742E-07
1.7535E-08	5.4205E-08	3.4767E-07	-1.1392E-07
4.5943E-08	6.3505E-08	-1.1625E-07	5.5324E-07
5.3799E-08	2.2865E-09	2.5504E-07	1.2329E-07
4.2584E-08	-4.9626E-08	-3.0132E-07	9.0650E-07
5.8579E-08	-2.8913E-08	9.9176E-07	6.1592E-07
2.4680E-08	-2.2656E-08	-9.7853E-08	3.3250E-07
-4.0700E-08	-3.2761E-08	1.2435E-06	1.0851E-06
-3.4025E-08	5.9552E-09	5.9737E-07	-8.0147E-07
-2.8519E-08	1.6787E-08	-8.5872E-08	1.1079E-06
-2.5740E-08	4.1317E-08	1.7483E-06	-1.6589E-07
2.6306E-08	1.7765E-08	-6.0053E-07	-4.7581E-07
5.1879E-08	2.8331E-08	9.8193E-07	1.3484E-06
6.3194E-08	-2.0390E-08	1.4499E-06	-1.2612E-06
3.0546E-08	1.3920E-08	-1.0751E-06	-8.2126E-07
2.3923E-08	-7.7626E-08	-5.7795E-07	1.1750E-06
2.1775E-08	-7.7926E-08	9.4209E-07	8.5973E-07
1.8270E-08	-5.7368E-08	5.4667E-07	-7.2783E-08
1.8526E-09	1.5054E-09	4.5304E-07	4.1841E-07
1.2612E-08	-2.6138E-08	7.3940E-07	-2.1774E-07
-1.0969E-08	-2.2399E-08	-2.6466E-07	-2.3876E-07
1.2124E-08	-2.2345E-08	-2.2471E-07	1.0797E-06
2.4861E-08	-1.8507E-08	1.5139E-06	9.1698E-07
-1.9596E-08	-6.1826E-08	9.8286E-07	-8.2508E-07
3.0100E-10	-2.6478E-08	-7.4064E-08	-1.6979E-07
1.7035E-09	-4.0412E-08	1.6911E-07	3.3619E-07
-5.3865E-08	-1.5141E-08	1.0279E-06	2.0954E-07
-3.4071E-08	-1.3440E-08	-1.1241E-07	-1.0920E-06
-1.7266E-08	2.2293E-09	-5.4295E-07	1.2691E-06
-4.2431E-08	4.4911E-09	1.3931E-06	-6.8564E-08
9.9906E-09	1.5684E-08	-5.2948E-07	8.6490E-08
-8.5936E-10	-2.2382E-09	1.1380E-06	6.1542E-07
8.1940E-09	-2.7442E-08	5.5722E-08	-4.3353E-07
-3.4463E-08	-6.9164E-08	5.9615E-07	6.5066E-07
-6.3535E-08	-3.4625E-08	5.9901E-07	-4.9212E-07
-7.8019E-08	-6.3530E-11	-1.1779E-07	4.0578E-08
-5.9156E-08	2.3107E-08	2.3703E-07	5.6108E-07
-5.8416E-08	9.5120E-09	8.7859E-07	9.0833E-08
3.1085E-09	2.4290E-08	7.5063E-08	1.1254E-07
2.9066E-08	-1.6792E-08	1.5089E-06	1.8987E-07
7.0406E-08	8.4589E-09	-3.5134E-07	-1.6923E-06
6.0361E-08	7.3536E-09	-7.4458E-07	1.4703E-06
4.1742E-08	4.6112E-08	1.4713E-06	-1.2096E-07
-2.6331E-09	-2.3150E-08	-4.3753E-07	6.9237E-08
-2.2500E-08	-1.7730E-08	1.3289E-06	4.2342E-07
-2.1691E-08	-1.6629E-08	5.6826E-08	-9.1247E-07
-1.2020E-08	-3.4862E-08	2.3597E-07	5.8148E-07
-4.6247E-08	5.9139E-08	9.0399E-07	-6.0381E-07
-8.4646E-09	7.4360E-09	-2.5053E-07	-6.6196E-07
-4.9868E-10	5.9294E-08	-3.4553E-07	7.4308E-08
1.2216E-08	3.0076E-08	2.0508E-07	1.7447E-07
-1.3537E-08	4.7468E-08	-2.3028E-07	-2.4032E-07
3.8930E-08	4.3810E-09	-1.7549E-07	7.2517E-07
3.9643E-08	3.4654E-08	5.1804E-07	1.9775E-07
2.8222E-08	2.8833E-08	2.2068E-07	3.2912E-07
4.0369E-08	1.5678E-08	6.8317E-07	-2.0719E-07
2.7144E-08	-1.6300E-09	-3.4160E-07	-1.7466E-07
1.8444E-08	-4.1457E-08	2.1684E-07	5.6402E-07
4.9813E-08	3.2615E-09	5.6826E-07	1.9215E-08
-3.4108E-09	-3.4612E-09	9.2188E-08	-3.7233E-07
8.2001E-08	-3.0374E-08	-2.3612E-07	4.0790E-07
2.4542E-08	-6.0319E-08	5.9043E-07	1.2967E-07
8.9381E-08	1.7785E-08	2.3968E-09	9.7905E-08
-2.2996E-09	-6.3298E-08	7.7754E-07	-2.0597E-07
-2.1593E-09	-5.5015E-08	-7.5434E-07	-6.3236E-07
2.4870E-08	-1.8140E-08	-2.0506E-07	7.5333E-07
-3.5937E-09	-2.4973E-09	-2.5394E-07	2.4852E-07
2.7714E-08	-3.7089E-08	4.3000E-07	1.0594E-06
2.3904E-08	1.7264E-08	4.0418E-07	-9.5784E-08
-4.8671E-08	-3.3617E-08	6.2394E-07	8.3931E-07
-2.7867E-08	-3.1850E-08	9.0534E-07	-1.2184E-06
1.1107E-08	-3.6795E-08	-1.4610E-06	-2.9594E-08
-2.6759E-08	-2.5675E-08	6.5382E-09	1.1868E-06
-2.0755E-08	-3.6455E-08	3.3010E-07	9.9180E-07
-8.1910E-09	1.6255E-09	1.2582E-06	4.7405E-07
-1.9494E-08	-1.1138E-08	3.4959E-07	-7.6568E-08
-7.0127E-09	4.0010E-08	1.0298E-06	4.9173E-07
-1.0922E-09	6.3680E-08	9.5736E-07	-7.7600E-07
2.7927E-08	-1.6443E-08	8.3520E-08	-7.4170E-07
-6.8309E-09	1.6821E-08	-5.4972E-07	-2.7087E-07
2.6706E-08	-2.7639E-08	1.9869E-07	5.8726E-07
1.6728E-09	-5.3401E-08	2.9728E-07	-5.7692E-07
-4.2049E-09	2.6224E-08	-6.0925E-07	2.3138E-07
-4.4082E-08	-1.5996E-08	1.9058E-07	4.4655E-07
-5.9471E-08	-5.3878E-08	1.7482E-07	3.2367E-07
-7.2991E-08	-1.1473E-08	2.6205E-07	3.6764E-08
-5.4941E-08	2.1820E-08	-4.4396E-08	4.4044E-07
-4.4167E-08	5.6295E-08	5.9758E-07	3.0439E-07
-7.1801E-09	4.8330E-08	4.2331E-07	9.9095E-08
6.1484E-09	4.7280E-08	4.8798E-07	-3.4200E-07
2.5003E-08	4.7229E-08	-5.1237E-08	-8.0357E-08
-2.1300E-08	2.7042E-08	6.6789E-08	-6.6051E-07
-1.6167E-08	9.6136E-09	-1.5432E-06	5.7035E-07
2.2121E-08	-3.1169E-08	8.8885E-07	1.6326E-06
-1.8258E-08	1.5228E-08	6.2082E-07	-1.8580E-07
1.5789E-08	-4.1275E-09	4.7762E-07	2.6255E-07
3.3543E-08	1.2809E-08	-1.1913E-07	-1.7039E-07
-9.8934E-09	3.7050E-08	2.5910E-07	1.1010E-06
1.5913E-08	3.8984E-08	1.4342E-06	1.9279E-07
1.1364E-08	2.7258E-08	8.5407E-07	-1.2967E-06
3.8345E-08	-1.1056E-08	-1.5047E-06	-6.7571E-07
4.0781E-08	2.2698E-08	-1.1350E-07	1.6293E-06
1.6090E-08	1.1243E-09	8.2554E-07	1.1990E-07
3.2424E-08	-7.1526E-08	3.1168E-07	1.4289E-07
6.1085E-09	-5.6228E-08	-1.7286E-07	1.6758E-07
2.4596E-08	6.6365E-09	7.8190E-07	1.3460E-06
-1.7673E-08	-1.6512E-08	1.5559E-06	-3.8713E-07
2.7170E-10	9.2826E-09	6.1252E-07	-4.6189E-07
-7.7513E-09	-3.5502E-08	4.4832E-07	-6.7005E-07
3.4980E-09	-1.8313E-09	4.6517E-07	-3.4010E-07
-1.5595E-09	-7.2027E-09	1.0641E-07	-1.3374E-06
-2.1169E-08	9.4141E-09	-9.8336E-07	-3.3897E-07
1.9915E-08	-4.2310E-09	-5.1094E-07	1.2844E-07
-9.3163E-09	-1.8949E-08	-2.0316E-07	3.4953E-07
4.5266E-08	-8.5613E-09	-6.2387E-07	7.2914E-08
1.4362E-09	-1.8465E-08	1.7427E-08	1.5966E-06
-6.9956E-09	-1.2902E-09	1.1293E-06	1.2429E-08
1.3002E-08	6.3566E-09	3.1098E-07	4.1437E-07
2.4448E-09	-2.8157E-08	1.0269E-06	-5.8836E-07
7.1706E-09	-2.5462E-09	-3.2609E-07	-5.8002E-08
