jMRUI Data Textfile

Filename: Export_to_jmrui.txt

PointsInDataset: 2048
DatasetsInFile: 1
SamplingInterval: 0.250000
ZeroOrderPhase: 0E0
BeginTime: 0E0
TransmitterFrequency: 1.2326E8
MagneticField: 2.8936E0
TypeOfNucleus:  
NameOfPatient:  
DateOfExperiment:  
Spectrometer:  
AdditionalInfo: 
SignalNames:  


Signal and FFT
sig(real)	sig(imag)	fft(real)	fft(imag)
Signal 1 out of 1 in file
6.8433E-07	-9.8211E-08	1.1092E-06	5.3718E-07
9.7201E-07	-7.8059E-07	-1.8920E-07	-3.7150E-07
3.5061E-07	-8.7334E-07	-7.1053E-07	1.0671E-07
5.0996E-08	-7.9847E-07	-8.1309E-07	8.2859E-07
-4.6510E-07	-5.3744E-07	1.3446E-09	4.4439E-07
-5.0012E-07	-2.2138E-07	-1.3065E-06	2.4488E-07
-4.5595E-07	4.2617E-08	-8.3269E-07	1.7805E-06
-1.6651E-07	2.3657E-07	8.0219E-08	1.4131E-06
1.1257E-08	2.0717E-07	2.3296E-07	1.3123E-06
2.0471E-07	-2.2744E-08	6.7736E-07	1.1076E-06
1.5261E-07	-1.5117E-07	8.6286E-07	4.6438E-07
8.1208E-08	-2.8513E-07	3.5546E-07	1.1856E-07
-1.1182E-07	-2.8070E-07	2.4357E-07	4.4411E-07
-1.7323E-07	-2.2229E-07	8.0451E-07	2.3051E-07
-3.0058E-07	-5.9742E-08	2.4408E-07	-7.5828E-07
-2.5088E-07	-8.6270E-10	-4.2607E-07	9.6649E-08
-1.8539E-07	1.3772E-07	1.8983E-07	-4.2505E-07
-7.9323E-09	6.4181E-08	-1.0536E-06	-1.8900E-07
2.7505E-08	3.5953E-08	-3.6933E-07	3.8013E-07
-3.9177E-08	-6.0731E-08	-6.7915E-07	5.1044E-07
-1.2572E-07	-6.2329E-08	6.6828E-07	1.7871E-07
-3.0029E-07	3.2394E-08	-1.3560E-06	-1.1760E-06
-2.6047E-07	1.2823E-07	-1.5090E-06	1.4338E-06
-1.6717E-07	2.0273E-07	-1.4315E-07	8.4458E-07
-8.8038E-08	2.1930E-07	-1.0294E-07	9.0822E-07
-2.5843E-08	1.5535E-07	8.4095E-08	-1.2515E-07
8.7924E-08	6.8668E-08	-1.0388E-06	3.3546E-07
7.6654E-08	3.9826E-08	-3.6921E-07	7.5567E-07
7.5345E-08	-1.6896E-08	-6.1465E-07	3.3505E-07
-1.2335E-08	3.8152E-08	-9.6177E-07	9.6662E-07
-1.0277E-07	9.8591E-08	-5.6256E-08	1.3042E-06
-5.8172E-08	1.7878E-07	-1.3434E-07	3.7615E-07
-3.8324E-08	2.1379E-07	-7.9090E-07	9.2020E-07
7.3431E-08	1.9141E-07	-4.3321E-07	1.6553E-06
1.3730E-07	1.4612E-07	1.2209E-06	1.7870E-06
1.7473E-07	7.3945E-09	1.0860E-06	-8.2069E-07
2.3844E-07	3.9607E-08	-1.2118E-06	3.2063E-07
1.5243E-07	-7.8682E-08	3.5427E-07	1.2153E-06
1.0918E-07	-6.7752E-08	4.0800E-07	5.0052E-07
7.7262E-08	7.4390E-09	8.1968E-07	-9.2465E-08
6.8584E-08	4.1172E-08	-4.2370E-07	-7.6486E-07
9.0770E-08	-4.5949E-08	-9.1318E-07	-2.0635E-07
1.4231E-07	-7.5338E-09	-1.6851E-06	7.1422E-07
1.0059E-07	-1.3338E-07	-8.8309E-08	1.5587E-06
4.0571E-08	-1.4565E-07	-5.8438E-07	5.1583E-07
1.8587E-08	-1.0485E-07	2.1632E-07	1.7205E-06
-8.9163E-08	-1.0135E-07	2.9484E-07	-1.0931E-07
-6.9937E-08	-9.7030E-08	-1.9680E-07	1.0621E-06
-3.8641E-08	-1.7628E-08	2.0594E-08	-6.3802E-07
2.9291E-08	1.5013E-08	-1.7764E-06	1.6578E-06
8.2169E-10	-2.6134E-08	1.4646E-06	1.0277E-06
7.2112E-08	-3.8483E-08	-1.2321E-06	-2.0038E-07
6.4419E-08	1.7618E-08	1.3332E-07	1.7474E-06
-1.3951E-08	-8.0806E-08	-2.3635E-07	2.0370E-07
-6.0393E-08	-9.1066E-08	1.1707E-07	1.2509E-06
-1.4341E-07	-3.1907E-08	-5.8826E-07	-1.2006E-07
-7.7759E-08	7.5356E-09	-6.9746E-07	2.1683E-06
-4.8625E-08	-3.6862E-08	7.0130E-07	5.7221E-07
1.4802E-08	-2.3165E-08	-8.3943E-07	1.4180E-06
-6.0439E-09	-5.1780E-08	7.4592E-07	1.5833E-06
-2.5162E-08	-2.5714E-08	3.1705E-07	1.4729E-06
-2.5290E-08	-7.4331E-08	1.7912E-06	1.0660E-06
-7.9173E-08	-5.4779E-08	5.7523E-07	-3.0662E-07
-1.3512E-07	-2.2732E-08	2.3244E-07	4.9538E-07
-8.4165E-08	3.1170E-08	1.0538E-07	6.6344E-07
-5.4809E-08	3.6960E-08	1.1396E-06	8.9538E-07
-4.8933E-08	1.3724E-07	6.5475E-07	-6.8262E-07
-9.8889E-08	6.8325E-08	-4.0610E-07	1.8773E-07
-4.0145E-09	1.2203E-07	-1.7034E-08	4.5656E-07
3.0193E-08	6.2655E-08	1.1063E-07	6.5094E-07
4.6903E-08	9.5178E-08	9.4013E-08	2.6311E-07
7.0769E-09	4.3365E-08	-9.8119E-08	1.0813E-06
8.1993E-09	4.5978E-08	1.0662E-06	5.0255E-07
-3.0258E-08	7.6398E-08	-5.7398E-08	6.7341E-08
-2.9239E-08	4.0328E-08	7.5102E-07	8.5093E-07
2.1373E-09	4.2228E-08	6.1949E-07	-5.4142E-07
8.3111E-08	2.8004E-08	-1.9878E-07	1.9702E-07
1.1138E-07	5.1651E-08	4.5911E-07	2.5550E-08
5.1090E-08	-5.1399E-09	-7.4393E-08	-4.0903E-07
1.2989E-08	-5.1270E-08	-7.8065E-07	-1.4373E-07
5.9952E-09	-2.9394E-08	-4.9683E-07	1.0140E-06
9.6721E-09	6.5212E-09	3.0121E-07	8.9028E-08
-4.5308E-08	7.3885E-08	-1.0150E-06	7.1078E-07
9.5242E-08	1.2341E-07	1.0125E-06	1.4015E-06
9.1544E-08	2.9254E-08	6.6984E-07	-8.3249E-07
1.3101E-07	-9.2649E-09	-6.3143E-07	-2.5369E-07
1.1558E-07	-9.1473E-08	-7.9083E-07	-1.3184E-08
7.7928E-08	-1.2148E-07	-1.0067E-06	9.5021E-07
-1.1918E-08	-1.1800E-07	1.1670E-07	9.7112E-07
-6.2115E-08	-9.2503E-08	-4.4852E-07	2.8963E-07
-1.0948E-07	8.0544E-09	-3.8127E-07	1.3512E-06
-6.8778E-08	6.8465E-08	4.3811E-07	5.6628E-07
-9.2805E-10	9.3728E-08	-5.1321E-07	7.8652E-07
3.9090E-08	1.6465E-08	5.5627E-07	1.1624E-06
9.9962E-08	-2.0334E-08	2.9983E-07	3.6846E-07
1.1033E-07	-2.3233E-08	4.7909E-07	5.8108E-07
3.4093E-08	-1.1742E-07	4.1519E-07	-1.4226E-07
-3.9822E-08	-1.0724E-07	-2.7751E-07	-5.8251E-07
-7.1409E-08	-1.4103E-07	-1.8588E-06	2.8178E-07
-5.4397E-08	-8.2797E-08	-4.7368E-07	2.3975E-06
-6.4786E-08	-2.7216E-08	1.0983E-06	8.5984E-07
-7.7841E-08	7.4037E-08	-2.2221E-09	3.7975E-10
-1.9909E-08	6.8630E-08	-7.7488E-07	6.8404E-07
-1.4655E-08	-1.7524E-10	-2.4169E-07	1.7414E-06
-2.2576E-08	-1.2468E-08	1.0006E-06	1.5010E-06
-2.9901E-08	5.1903E-09	1.1814E-06	2.7425E-07
-2.2600E-08	-2.2231E-08	3.9575E-07	1.8636E-08
-3.0367E-08	2.6767E-08	1.1169E-07	-1.9013E-07
-1.0550E-08	3.8740E-09	-6.9178E-07	8.8737E-07
-3.0275E-08	4.0652E-08	1.4300E-06	6.4782E-07
-4.2805E-08	-2.4943E-08	-7.5905E-07	-1.1211E-06
5.1381E-09	-7.0761E-09	-6.7079E-07	1.5061E-06
3.2562E-09	3.2330E-08	1.0704E-07	1.1182E-07
-6.5538E-09	4.8118E-09	-8.3917E-07	1.3493E-06
2.1172E-09	-2.7816E-08	6.8795E-07	1.4617E-06
-3.9102E-08	2.6859E-08	9.3253E-07	5.3505E-07
-6.2772E-08	3.3117E-08	1.4819E-08	1.7844E-07
2.2019E-08	1.8351E-08	7.8179E-07	1.1363E-06
-1.1647E-08	1.1765E-09	7.0741E-07	-7.7552E-07
-1.2979E-08	5.6704E-08	-5.1519E-07	5.2493E-07
4.4110E-08	3.6998E-08	5.8328E-07	-7.8917E-08
1.0115E-08	3.3111E-08	-8.0719E-07	-2.0038E-09
-4.5307E-09	3.3276E-08	-2.9498E-07	8.8192E-07
4.6337E-08	1.2402E-08	2.9493E-07	7.4971E-07
3.6498E-08	-4.9991E-08	1.0514E-07	-7.0227E-08
-1.8105E-08	-5.0167E-08	-4.1493E-07	5.5601E-07
-1.8642E-08	1.4694E-08	-1.5862E-07	3.5016E-07
-1.2123E-08	-1.0355E-08	-1.9127E-07	1.0315E-06
1.3433E-08	1.2540E-08	5.0769E-07	1.6037E-08
4.3145E-08	4.0857E-08	-8.9838E-07	2.2794E-07
2.7661E-08	2.6089E-08	-3.8003E-07	1.0297E-06
2.9850E-09	4.4957E-08	1.4124E-07	1.0457E-06
3.5169E-08	-2.9829E-08	1.0765E-07	1.6294E-07
-1.2656E-08	-6.4498E-09	-4.3854E-07	1.0408E-06
4.6643E-08	-2.5285E-08	4.4120E-07	2.5399E-07
2.8088E-08	5.7975E-09	-9.9730E-07	6.9038E-07
2.1073E-08	-4.7052E-08	2.5911E-07	1.2354E-06
-7.7608E-09	-6.6674E-08	-1.9114E-07	7.6365E-07
-2.5573E-08	-6.2816E-09	3.0602E-07	1.0762E-06
1.1478E-08	-7.5169E-08	2.5416E-07	8.6684E-07
-2.7672E-08	-6.4678E-08	7.9435E-07	4.3562E-07
2.9562E-08	-3.1538E-08	-2.2644E-07	-2.4835E-08
-3.8046E-08	-1.9527E-08	-1.3732E-07	7.0823E-07
-2.3130E-08	-1.2617E-08	6.2321E-08	4.4998E-07
-4.0561E-08	3.0434E-08	-2.6928E-07	1.7248E-07
-2.3179E-08	4.1953E-08	-5.7581E-07	7.6251E-07
7.7201E-09	2.9522E-08	-4.3168E-07	2.6519E-07
-1.9348E-08	-3.1347E-08	-1.6763E-06	1.6264E-06
1.6370E-08	3.2734E-11	6.6146E-07	2.4116E-06
-3.6612E-08	1.9089E-09	4.4539E-07	1.0088E-06
-5.2038E-08	-4.0108E-08	7.6985E-07	1.4082E-06
-1.8620E-08	4.4421E-08	6.3192E-07	5.0094E-07
8.9046E-09	-3.8167E-09	3.0397E-07	1.0533E-06
4.5249E-09	1.6591E-08	1.2848E-06	6.9468E-07
-3.2367E-08	2.9855E-08	4.1773E-08	-9.2212E-07
-3.9836E-08	7.4019E-08	-1.1924E-06	1.6854E-06
-2.8159E-08	1.0630E-08	1.7697E-06	7.0634E-07
-3.0147E-08	-2.0764E-08	-1.2388E-06	-1.8232E-07
6.5100E-09	-2.9458E-08	5.5234E-07	2.0374E-06
6.9222E-09	2.9715E-08	1.7174E-07	2.5390E-07
-3.3393E-09	1.1219E-08	8.8760E-07	1.3168E-06
1.1206E-09	-3.5588E-08	-2.6512E-07	-6.0948E-07
1.2323E-08	-2.5491E-08	-3.0192E-07	2.3182E-06
-2.8909E-09	-4.6940E-08	1.2762E-06	1.8513E-07
-7.5809E-09	3.5041E-08	-2.4307E-07	1.2340E-06
-3.2769E-08	-4.5168E-09	1.2608E-06	5.8360E-07
2.3365E-08	3.7143E-08	3.1127E-07	9.5120E-07
1.9579E-08	2.9860E-09	2.0156E-06	-1.9666E-07
4.2061E-08	3.5763E-08	-7.5049E-07	-1.0889E-06
1.5664E-08	3.6150E-08	-1.3036E-07	7.6115E-07
6.3183E-08	6.5993E-09	-3.8640E-07	-3.6876E-08
-3.6418E-08	-9.5509E-09	-9.1499E-08	9.5755E-07
5.5467E-08	-4.4496E-08	-8.7756E-08	6.1730E-09
1.3902E-08	-4.7079E-08	-3.1854E-07	7.2492E-07
5.6313E-08	-5.3400E-08	-5.6765E-07	-1.4639E-07
-3.1146E-09	-4.8008E-08	-1.3844E-06	1.5543E-06
2.6728E-08	-8.7253E-09	2.8413E-08	1.2035E-06
-3.1917E-08	-3.8474E-08	-1.0279E-06	1.8125E-06
-5.1395E-08	-8.1666E-10	8.5604E-07	2.3601E-06
-5.3821E-09	-5.7978E-08	9.5123E-07	1.3892E-06
1.1522E-08	-4.7913E-09	1.2524E-06	5.0175E-07
6.2313E-11	-2.3310E-08	-5.2736E-07	8.9592E-07
4.4737E-09	-3.4431E-08	1.5691E-06	1.7803E-06
-2.7511E-08	-5.3940E-08	4.2392E-07	-9.8251E-08
-5.2357E-08	-3.5953E-08	9.2733E-07	1.5475E-06
-4.0271E-08	-7.6462E-09	8.4090E-07	-4.8590E-07
-3.1885E-08	-7.1019E-09	-1.3813E-07	1.1737E-06
-5.0290E-08	2.3794E-08	1.0447E-06	4.8363E-07
-1.8181E-08	1.7445E-08	3.6777E-07	6.8753E-07
-1.6908E-08	8.7366E-08	1.0230E-06	4.4109E-07
6.0284E-09	1.6281E-08	9.4581E-07	-2.6031E-08
-2.4621E-08	1.4379E-08	9.0074E-08	-1.0815E-06
-2.3668E-08	3.8637E-09	-1.4773E-06	4.4075E-07
-2.4317E-08	2.5864E-08	-5.6119E-09	1.6019E-06
-8.9782E-09	2.2544E-08	6.7163E-07	5.2511E-07
6.1604E-09	7.2976E-09	-5.7796E-07	3.7375E-07
-1.1046E-08	6.0432E-08	2.0414E-07	1.8548E-06
-1.2662E-08	1.5104E-08	1.0138E-06	5.5611E-07
1.6683E-08	1.5178E-08	5.3911E-07	6.2454E-07
4.2722E-08	-3.6676E-08	4.6571E-07	4.2773E-08
3.5296E-08	1.5021E-08	3.8960E-07	4.8053E-07
-2.5759E-08	1.9258E-09	-2.7235E-07	-8.6769E-07
-5.6644E-09	-1.1366E-08	-1.6612E-06	1.6228E-06
3.4826E-08	-1.8654E-08	8.9929E-07	1.5210E-06
4.1936E-09	-5.0491E-09	2.5967E-08	8.0547E-07
