jMRUI Data Textfile

Filename: Export_to_jmrui.txt

PointsInDataset: 2048
DatasetsInFile: 1
SamplingInterval: 0.250000
ZeroOrderPhase: 0E0
BeginTime: 0E0
TransmitterFrequency: 1.2326E8
MagneticField: 2.8936E0
TypeOfNucleus:  
NameOfPatient:  
DateOfExperiment:  
Spectrometer:  
AdditionalInfo: 
SignalNames:  


Signal and FFT
sig(real)	sig(imag)	fft(real)	fft(imag)
Signal 1 out of 1 in file
9.0669E-08	3.7246E-07	-5.0688E-07	4.8821E-07
5.0395E-07	9.4992E-08	2.8130E-07	4.6260E-07
5.0610E-07	-2.0343E-07	1.0438E-06	1.9422E-07
1.9240E-07	-3.1249E-07	-1.1663E-07	-1.8426E-06
8.5586E-08	-3.4248E-07	-1.4251E-06	1.1637E-06
-2.2110E-07	-1.8264E-07	1.2593E-06	-2.4553E-07
-1.2950E-07	-1.2665E-07	-1.3095E-06	3.2403E-07
-1.2985E-07	1.3027E-07	1.7344E-06	6.2291E-07
-3.5520E-08	9.7327E-08	-6.4654E-07	-1.1134E-06
1.1495E-07	1.5020E-07	4.9062E-07	9.2409E-07
2.1682E-07	-2.9003E-08	3.5917E-07	-7.4866E-07
1.3085E-07	-7.0858E-08	3.1198E-07	1.7337E-08
7.2851E-08	-1.8765E-07	6.1626E-08	-5.7445E-07
1.5184E-08	-2.2503E-07	5.8157E-07	-1.8473E-07
-7.3400E-08	-1.5950E-07	-1.8871E-07	-1.3432E-06
-8.6717E-08	-8.5312E-08	-5.1950E-07	-2.5600E-07
-1.5890E-07	-8.6801E-09	-6.5346E-07	-6.0584E-07
-6.8691E-08	4.8992E-08	-4.8875E-07	4.2911E-07
-4.1722E-08	3.4494E-08	5.9644E-08	-2.7574E-07
3.7203E-08	-9.5960E-09	-1.8446E-07	-2.8702E-07
-2.4719E-08	-9.4677E-08	-7.5042E-07	-6.3986E-07
-7.8369E-08	-8.4588E-08	-7.9080E-07	6.1529E-07
-1.3454E-07	-1.2253E-07	9.3332E-08	1.0457E-08
-1.1779E-07	-7.3403E-08	-3.6113E-07	-4.8314E-08
-1.2299E-07	-3.4424E-09	-4.1526E-07	-4.3546E-07
-8.0156E-08	5.3991E-08	-1.3400E-06	3.4113E-07
1.4752E-09	9.5410E-08	-2.2868E-07	1.0974E-06
-1.4556E-08	6.8212E-08	1.2206E-07	4.0890E-07
2.5665E-08	2.2326E-08	-7.6359E-08	2.5727E-07
7.7297E-10	3.6376E-08	-1.5339E-07	3.6857E-07
-6.3892E-08	-6.4270E-08	-1.7755E-07	3.0556E-07
-8.2871E-08	-2.8030E-08	-2.2388E-07	1.0151E-06
-1.5922E-07	6.1261E-08	1.2008E-06	4.6280E-07
-8.8655E-08	1.1035E-07	-3.9237E-07	-6.1981E-07
-1.0987E-07	1.3972E-07	-3.1621E-08	1.5759E-06
-1.7987E-08	1.4611E-07	1.7294E-06	9.8882E-08
2.5439E-08	1.2094E-07	5.5964E-07	-7.5575E-07
7.4071E-08	3.4999E-08	1.9753E-07	-4.7563E-07
7.3451E-08	7.2020E-08	5.0404E-07	-4.0223E-07
4.4141E-08	3.4671E-08	-2.9791E-07	-1.3778E-06
6.4014E-08	2.4321E-08	-9.6794E-07	4.8239E-07
1.0449E-07	7.8433E-08	7.7580E-07	-2.6152E-07
1.0700E-07	7.0276E-08	-6.3487E-07	-6.9171E-07
6.8683E-08	4.9947E-08	-2.7003E-07	-3.2593E-07
8.6817E-08	5.9516E-08	-1.2365E-06	-9.2456E-08
6.4193E-08	-2.5340E-10	-3.2068E-07	1.0906E-06
1.0557E-07	-2.3135E-09	7.0028E-07	6.2161E-07
7.7291E-10	-1.9460E-08	8.9949E-07	-9.7844E-07
3.1532E-08	-1.0642E-08	-1.2301E-06	-7.5584E-07
7.9310E-09	-1.0292E-08	-1.4043E-07	5.2424E-07
1.6675E-09	2.5458E-08	-4.0786E-07	-4.3930E-07
6.2554E-08	3.7182E-09	-5.1979E-07	2.9381E-07
4.9880E-08	-2.3846E-08	-4.6349E-07	1.4676E-07
2.0233E-08	-2.1258E-09	-4.0482E-07	4.2525E-07
7.2980E-08	-7.5553E-08	-4.4952E-07	9.6190E-07
2.6721E-08	-3.1898E-08	1.2328E-06	6.9009E-07
1.9613E-08	-8.5941E-08	-2.5367E-07	-7.0203E-07
-3.1053E-09	-7.5358E-08	-2.5535E-07	1.2928E-06
-1.1683E-08	-2.0579E-08	2.1334E-06	-3.2819E-07
-1.7222E-08	-5.7972E-08	-3.7939E-07	-1.5659E-06
2.5619E-09	-4.8607E-08	-4.6661E-07	8.9743E-09
6.6756E-08	-3.9105E-08	-1.0647E-08	-1.6959E-07
2.2466E-08	-4.5760E-08	3.9771E-09	-3.2454E-07
2.9771E-08	-6.1628E-08	-3.6411E-07	-3.7073E-07
9.4351E-09	-6.1913E-08	-8.9416E-08	4.4953E-08
-1.6969E-08	-5.8639E-08	1.8922E-08	-6.2846E-07
-2.3796E-08	-6.2257E-08	-6.9185E-07	-4.1258E-07
-5.8714E-08	-8.9019E-08	-4.9073E-07	-1.1266E-07
-8.2788E-08	-2.0255E-08	-5.9691E-07	-7.2497E-08
-1.2346E-07	-5.8755E-08	-5.5383E-07	1.9385E-08
-7.9560E-08	-3.6161E-08	-6.9008E-07	3.4719E-07
-8.1895E-08	-3.7990E-08	-1.0576E-07	4.4353E-07
-5.9228E-08	2.4993E-08	-3.3185E-07	1.9261E-07
-1.6798E-08	4.8677E-08	1.3250E-07	5.6505E-07
-4.3373E-08	4.1317E-08	1.5779E-07	-3.4429E-07
-2.1576E-08	6.8758E-08	-5.1037E-07	2.9681E-07
1.9705E-08	5.2092E-08	5.6943E-07	1.3889E-07
1.4012E-08	-3.0613E-08	-4.3968E-07	-6.3716E-07
1.1092E-08	2.1430E-09	-3.2780E-07	4.9955E-07
2.0336E-08	-2.8417E-08	4.3209E-08	-7.4931E-08
-5.1592E-08	-1.0715E-08	1.2936E-07	2.2732E-07
-3.1846E-09	-3.1053E-09	-1.1668E-07	-6.9038E-07
-2.9596E-08	3.0140E-08	-3.6365E-07	7.9647E-07
-2.7277E-08	6.3618E-08	1.1839E-06	-9.1874E-07
1.5257E-09	7.7911E-08	-1.3688E-06	-8.2340E-07
3.8285E-08	4.4370E-08	8.1354E-08	6.8877E-09
6.8295E-09	7.6733E-08	-1.5435E-06	-6.2049E-07
3.9594E-08	2.6125E-08	-2.0097E-07	1.3927E-06
2.6293E-08	4.3206E-08	1.1904E-07	-3.9100E-07
3.3626E-08	-3.7389E-08	1.1348E-07	4.5831E-07
1.2093E-08	-3.9859E-08	3.2830E-08	-1.4172E-06
4.0197E-08	1.4438E-08	-1.7765E-06	3.5398E-07
-4.6452E-08	-1.2149E-08	2.6083E-07	5.5641E-07
2.7070E-08	4.7338E-09	-7.5059E-07	-3.1724E-08
1.0614E-08	8.8744E-09	1.9563E-07	7.5380E-07
-5.5160E-09	-8.3487E-09	-7.1799E-09	-3.4854E-07
3.6665E-08	2.1484E-08	-7.2367E-08	3.8781E-07
2.1379E-08	5.8399E-08	3.8628E-07	-4.5242E-07
8.9335E-09	2.3509E-08	-3.5479E-07	-4.0565E-07
-2.5540E-08	5.5725E-08	-8.5009E-08	-4.1307E-07
-2.4340E-08	-2.9382E-08	-7.2163E-07	-7.7572E-07
2.8168E-08	-4.4708E-08	-1.2680E-06	2.2085E-07
5.3525E-08	-8.2268E-09	-1.4949E-08	7.6651E-07
1.9976E-08	4.0326E-08	2.2971E-07	-3.4640E-07
-1.5377E-08	-4.5765E-08	-1.3156E-07	-6.7762E-07
3.6310E-09	-3.4291E-08	-1.3931E-06	-8.6365E-07
2.1686E-08	-2.2192E-08	-1.0014E-06	1.1621E-06
-2.8191E-08	-1.8170E-08	3.3590E-07	-1.9757E-07
1.6100E-09	-1.7625E-08	-7.4979E-07	-2.9414E-08
1.3279E-08	-5.1570E-08	-1.3675E-07	-3.4797E-07
-4.0428E-09	-1.7859E-08	-1.0894E-06	-1.5385E-07
2.8457E-08	4.3656E-09	-6.1179E-07	4.5132E-09
2.6830E-08	-2.5720E-08	-1.0822E-06	4.5078E-07
-1.8076E-08	2.4585E-09	-4.8960E-08	4.1868E-07
1.1524E-09	2.1142E-09	-3.6666E-07	5.5607E-08
1.2902E-08	-4.6790E-08	-2.3320E-07	-5.9872E-07
8.6250E-09	-2.2344E-08	-1.6577E-06	8.9360E-08
3.2291E-08	-8.0040E-09	-2.5146E-07	5.4199E-07
-3.3442E-09	-8.4138E-09	-1.2920E-06	1.3385E-07
-3.5540E-08	-3.7853E-08	-1.0315E-07	1.1442E-06
-5.1053E-08	-5.3506E-08	-1.0517E-07	-2.0804E-07
-1.4834E-09	3.4972E-08	-6.5527E-07	-2.1564E-07
-4.4826E-08	3.1843E-08	-1.5889E-06	5.4057E-07
-1.9796E-08	1.2262E-08	3.1173E-07	1.4320E-06
1.5365E-08	2.1854E-08	-4.0972E-09	-6.0032E-07
2.3077E-08	5.5241E-08	-7.1863E-07	2.3938E-07
2.5617E-08	-1.7188E-09	-7.3861E-07	-1.0871E-07
-2.8726E-09	-1.5681E-08	-9.3957E-07	7.1370E-07
-5.1902E-08	6.3424E-09	-3.0517E-07	5.2078E-07
2.3678E-08	-6.0415E-08	-3.8214E-07	1.3359E-07
-2.9064E-08	-1.0852E-08	-1.2665E-06	2.1996E-07
-5.2635E-08	-5.1381E-09	-5.8371E-07	1.6584E-06
-2.6574E-08	2.2360E-08	7.8137E-07	4.6097E-07
-2.6594E-08	6.9393E-08	-3.8456E-07	-7.0685E-07
-5.5193E-08	8.8201E-08	-1.6916E-06	4.0980E-07
-1.0939E-08	7.1262E-08	-3.8057E-07	1.6130E-06
2.5935E-08	9.8838E-08	7.9147E-08	5.8858E-07
1.2707E-08	3.2647E-08	1.9640E-07	6.5656E-07
2.3115E-08	6.3730E-08	-3.2344E-07	-4.9475E-07
1.2087E-08	-1.7376E-08	-1.2958E-06	1.1451E-06
3.1705E-08	2.4895E-08	5.7322E-07	9.9903E-07
3.2286E-08	-1.2222E-08	-3.1105E-07	2.1130E-07
5.7110E-08	2.2567E-08	1.6091E-07	6.2648E-07
-2.1170E-08	2.1652E-08	-5.2567E-07	1.1351E-07
1.6519E-08	-1.2508E-08	1.5177E-07	1.0838E-06
3.7270E-08	-6.8893E-09	-9.6282E-08	-4.2603E-07
2.5221E-08	-6.2507E-08	-7.5356E-07	1.2355E-06
3.8860E-08	-3.0266E-08	4.7048E-07	3.5978E-07
2.4142E-08	-1.4244E-08	-1.8597E-07	1.2091E-06
-2.2874E-09	-4.3129E-08	1.3531E-06	-3.5465E-07
-3.1835E-08	-3.5353E-08	-4.3095E-07	2.7565E-07
-4.1538E-08	-1.0692E-08	7.2201E-07	1.2086E-06
3.5512E-08	1.2392E-08	8.1421E-07	-1.5911E-06
2.9199E-09	-4.2732E-08	-9.1182E-07	-7.8086E-07
-1.5068E-08	4.9636E-09	-1.4381E-06	-3.4753E-07
1.4944E-08	-1.7548E-10	-8.7844E-07	1.1646E-06
-2.5715E-09	-2.9945E-08	-1.3942E-08	4.3909E-07
-9.7567E-09	-3.1357E-08	8.6436E-08	1.7858E-07
-1.3063E-08	-3.6105E-08	-8.9306E-07	-5.3232E-07
-4.1680E-08	-1.3593E-09	-9.2483E-07	1.1759E-06
1.1596E-09	-2.9330E-08	6.8649E-08	2.8871E-07
-6.0261E-08	1.7899E-08	-6.4456E-07	5.7430E-07
-1.5626E-08	5.5941E-09	-9.2621E-08	5.5574E-07
-2.4937E-09	3.6398E-09	-2.2661E-07	4.9653E-07
1.2051E-08	-2.6527E-08	-2.6957E-07	4.0282E-07
1.4844E-08	-2.0173E-08	2.2072E-08	8.4962E-07
3.8254E-08	-5.6608E-08	2.9124E-07	-1.0557E-07
-2.4764E-08	-3.6279E-08	-4.1779E-07	3.1673E-07
-2.0336E-09	-4.7844E-08	7.5504E-08	-1.1070E-07
-3.5942E-10	-2.0132E-08	-9.6060E-07	2.3407E-07
-4.7442E-08	-5.7973E-08	2.1851E-08	4.9131E-07
-3.6328E-08	1.7400E-08	-1.0564E-06	-2.2595E-08
2.1056E-09	4.2173E-08	-4.8915E-07	1.5358E-06
-5.0160E-08	-2.0130E-08	3.1326E-07	3.5933E-07
-8.5013E-10	1.7240E-08	-7.0575E-07	7.5178E-07
8.8082E-09	3.0400E-08	4.6650E-07	1.3726E-06
5.1936E-08	3.0608E-08	7.4162E-07	-1.8238E-08
1.4344E-08	2.4259E-08	-4.4126E-07	2.7496E-07
2.2486E-08	-1.2203E-08	5.1579E-07	6.5735E-07
-2.3676E-08	1.7229E-08	-3.9022E-07	-1.4919E-08
-1.0460E-09	2.2459E-08	6.7250E-07	1.4822E-06
-9.1620E-09	4.8459E-08	8.7566E-07	-1.1159E-06
-4.5289E-09	4.9321E-09	-7.8477E-07	5.8228E-07
2.6537E-08	9.5223E-09	1.6202E-06	1.1919E-07
5.1629E-08	1.9542E-08	-9.1453E-07	-1.1756E-06
3.9851E-08	5.1834E-09	-1.5089E-07	7.0008E-07
-6.7916E-09	3.5263E-08	-2.3696E-07	-4.6130E-07
1.2567E-08	1.0228E-08	-8.6498E-07	4.0969E-07
4.5582E-08	-2.5468E-08	-1.9537E-07	1.3247E-06
1.1722E-08	2.1654E-08	1.2966E-06	3.5503E-07
1.6438E-08	-4.9365E-08	-8.9648E-08	-3.2858E-07
1.6643E-08	-3.6109E-08	8.0694E-07	1.8354E-07
1.3404E-09	9.5550E-09	-1.8644E-07	-7.9899E-07
3.2490E-08	-6.4444E-09	3.3303E-07	3.2117E-07
-1.0463E-08	-3.3179E-08	3.6050E-07	-9.3639E-07
2.2774E-08	2.2145E-08	9.5735E-08	-8.6637E-07
-2.7073E-09	-5.6474E-10	-1.2272E-06	-1.5786E-06
1.0236E-08	-3.2339E-08	-1.5905E-06	5.9472E-07
-3.0113E-08	-1.1658E-08	-2.2190E-07	2.8723E-07
8.2163E-09	-1.2707E-08	-4.1082E-07	5.8505E-08
-5.4191E-10	1.9182E-08	-2.6568E-07	-1.6288E-07
-4.6631E-09	3.3955E-10	-6.4145E-07	-5.0809E-07
-6.0899E-08	-1.9715E-08	-1.2072E-06	2.5038E-07
