jMRUI Data Textfile

Filename: Export_to_jmrui.txt

PointsInDataset: 2048
DatasetsInFile: 1
SamplingInterval: 0.250000
ZeroOrderPhase: 0E0
BeginTime: 0E0
TransmitterFrequency: 1.2326E8
MagneticField: 2.8936E0
TypeOfNucleus:  
NameOfPatient:  
DateOfExperiment:  
Spectrometer:  
AdditionalInfo: 
SignalNames:  


Signal and FFT
sig(real)	sig(imag)	fft(real)	fft(imag)
Signal 1 out of 1 in file
3.9317E-06	1.7078E-07	-4.6680E-06	6.6965E-08
6.9608E-06	-1.1198E-06	-3.6159E-06	1.5798E-06
4.7915E-06	-3.0513E-06	-2.5490E-06	1.0340E-06
3.0705E-06	-4.2261E-06	-2.7149E-06	7.1277E-07
1.0915E-07	-4.4074E-06	-3.2945E-06	9.1063E-07
-1.8156E-06	-3.4504E-06	-2.7392E-06	2.2715E-06
-3.1319E-06	-1.8429E-06	-1.3573E-06	1.3976E-06
-2.5522E-06	-1.3377E-07	-2.2212E-06	7.2704E-07
-1.4474E-06	8.2893E-07	-2.6773E-06	1.2641E-06
2.2795E-07	8.4115E-07	-2.4520E-06	2.4587E-06
1.0393E-06	3.0538E-07	-6.1059E-07	2.1880E-06
1.5136E-06	-4.2005E-07	-1.1128E-06	7.9907E-07
1.0794E-06	-1.1190E-06	-1.4812E-06	1.1269E-06
5.6784E-07	-1.4627E-06	-1.7546E-06	1.3144E-06
-2.1216E-07	-1.5335E-06	-5.3672E-07	1.6441E-06
-6.7931E-07	-1.2244E-06	-1.3175E-06	-5.8527E-07
-9.6044E-07	-8.9144E-07	-3.2995E-06	1.3802E-06
-8.7928E-07	-5.8036E-07	-1.7440E-06	2.2548E-06
-8.5163E-07	-4.1531E-07	-1.3521E-06	2.4898E-06
-7.6520E-07	-2.7690E-07	-5.9074E-08	1.4064E-06
-9.1379E-07	-1.2802E-07	-1.9332E-06	1.0067E-06
-8.7661E-07	2.4931E-08	-7.4722E-07	2.5950E-06
-9.4570E-07	3.3641E-07	-2.9974E-07	1.0274E-06
-7.5594E-07	5.3311E-07	-8.5451E-07	1.4274E-06
-4.6914E-07	5.6985E-07	-5.5875E-07	7.6779E-07
5.1833E-08	3.5367E-07	-1.8136E-06	1.2642E-06
2.4677E-07	5.6897E-08	-4.9486E-07	2.4846E-06
2.9968E-07	-2.2986E-07	2.0599E-07	9.5705E-07
2.6804E-09	-4.2316E-07	-5.7124E-07	9.9217E-07
-3.2975E-07	-4.6009E-07	-2.2722E-07	4.9852E-07
-6.8335E-07	-1.8228E-07	-1.4134E-06	5.9823E-07
-8.2844E-07	2.6904E-07	-8.6779E-07	1.3845E-06
-8.2695E-07	6.1062E-07	-6.5398E-07	1.4158E-06
-4.5092E-07	8.3587E-07	7.5031E-07	6.8964E-07
-8.6030E-08	8.7952E-07	-1.3717E-06	-1.4331E-06
2.8460E-07	7.1599E-07	-2.6030E-06	1.3593E-06
4.7828E-07	4.9457E-07	-9.0929E-07	8.3371E-07
5.4844E-07	2.1567E-07	-2.3766E-06	1.1299E-06
4.3770E-07	6.9520E-08	-1.0902E-06	1.9201E-06
4.5270E-07	1.3014E-07	-1.6442E-06	1.5002E-06
3.3765E-07	6.4697E-08	-4.2387E-07	2.4416E-06
4.2128E-07	-5.8394E-08	-3.9172E-07	6.2827E-07
4.0941E-07	-1.1555E-07	-1.2300E-06	1.4355E-06
3.6998E-07	-3.3777E-07	-8.5265E-07	1.0288E-06
1.8845E-07	-5.1304E-07	-1.3857E-06	1.7071E-06
-7.4533E-09	-5.5541E-07	-5.1400E-07	1.5055E-06
-3.0267E-07	-4.5065E-07	-1.0525E-06	1.5119E-06
-3.7085E-07	-1.8980E-07	-1.2254E-07	1.6367E-06
-3.6535E-07	5.4821E-08	-4.3142E-07	2.2736E-07
-1.7528E-07	2.5202E-07	-2.1762E-06	6.7492E-07
3.2327E-08	3.0249E-07	-1.4822E-06	2.3681E-06
3.3997E-07	1.7882E-07	-8.2571E-07	1.4753E-06
3.2652E-07	-7.7224E-09	-1.0967E-06	2.1199E-06
1.8381E-07	-2.7345E-07	-4.9704E-07	1.1702E-06
-8.7513E-08	-4.7971E-07	-1.9147E-06	1.8766E-06
-3.4092E-07	-3.6835E-07	-6.2272E-07	2.6087E-06
-5.5019E-07	-1.5331E-07	-5.0425E-07	2.2337E-06
-5.2282E-07	1.4407E-07	-1.0939E-07	1.9352E-06
-3.4013E-07	2.6517E-07	-4.7323E-07	2.1107E-06
-7.6516E-09	4.3023E-07	3.8928E-07	1.8379E-06
2.0569E-07	2.8398E-07	-2.3874E-07	1.4263E-06
2.7664E-07	8.1246E-08	-1.8800E-08	1.5756E-06
2.0558E-07	-1.0687E-07	7.8039E-08	1.6912E-06
2.9123E-08	-1.4695E-07	4.8753E-07	4.7793E-07
-2.0881E-07	-1.4707E-07	-1.3466E-06	1.0503E-06
-3.0113E-07	2.0119E-08	3.0341E-07	1.5393E-06
-2.5717E-07	1.6493E-07	-9.0831E-07	4.7442E-07
-1.4030E-07	2.8078E-07	-5.6406E-07	1.3419E-06
-3.2127E-08	2.7222E-07	-1.3542E-06	8.1321E-07
7.0508E-08	1.1966E-07	-1.1573E-06	1.9562E-06
5.5655E-08	-2.8991E-08	-1.1413E-06	2.0615E-06
-2.1552E-08	-4.9284E-08	1.5206E-07	2.4161E-06
-1.3969E-07	-1.8492E-08	-4.7696E-07	1.1340E-06
-1.8762E-07	4.4342E-08	-2.9729E-07	2.2467E-06
-2.3144E-07	2.0125E-07	2.4735E-08	1.3315E-06
-8.5372E-08	3.8331E-07	3.4485E-08	1.4904E-06
8.2450E-08	3.4535E-07	-4.8874E-07	6.7890E-07
2.4653E-07	2.3976E-07	-5.7443E-07	1.5403E-06
3.4122E-07	1.2826E-07	-8.6904E-07	5.3192E-07
2.6566E-07	-3.3588E-08	-1.7113E-06	2.1819E-06
9.5204E-08	-7.1033E-08	-1.4108E-07	1.8792E-06
-6.7198E-08	-4.9880E-08	-1.3222E-06	1.3217E-06
-1.5838E-07	8.0181E-08	-1.4879E-06	2.7790E-06
-6.8281E-08	1.7862E-07	7.1336E-09	3.4802E-06
7.7986E-08	2.0876E-07	1.3056E-06	2.1258E-06
2.2625E-07	2.0862E-07	3.5890E-07	7.2754E-07
2.5457E-07	1.6909E-08	-7.6710E-07	1.1975E-06
2.9438E-07	-9.7588E-08	-6.3514E-07	2.0119E-06
1.8891E-07	-2.7800E-07	1.3909E-07	1.9907E-06
-5.2292E-09	-3.0610E-07	-1.9211E-07	1.0001E-06
-1.6179E-07	-1.9614E-07	-1.0482E-06	1.9531E-06
-2.2987E-07	-1.0184E-08	1.2744E-08	1.8889E-06
-2.4032E-07	1.8075E-07	-1.0554E-06	1.7557E-06
-4.0035E-08	2.6978E-07	-1.2682E-07	2.8564E-06
1.6563E-07	2.9360E-07	2.1325E-07	1.9189E-06
3.3531E-07	1.9144E-07	-6.0761E-08	2.0943E-06
2.8828E-07	-4.2929E-09	1.9258E-07	2.2220E-06
2.3925E-07	-2.0035E-07	5.4138E-07	1.7617E-06
1.4750E-07	-2.7253E-07	-7.4158E-08	1.8903E-06
-8.6761E-10	-2.4777E-07	9.7363E-07	1.9760E-06
-1.2107E-07	-2.2294E-07	3.8372E-07	8.8264E-07
-1.4620E-07	-1.4169E-07	9.9466E-08	1.1809E-06
-1.7543E-07	-6.7517E-08	-3.8241E-07	1.0783E-06
-1.0953E-07	-5.4260E-08	-4.2606E-07	1.3309E-06
-5.6964E-08	-3.6889E-08	-1.0996E-06	2.1347E-06
-8.1361E-08	-1.9027E-08	1.0684E-06	2.4794E-06
-1.6345E-07	1.5956E-08	-3.1484E-07	2.6086E-07
-1.9214E-07	3.3287E-08	-9.1189E-07	2.4064E-06
-1.2923E-07	1.0338E-07	-1.7072E-07	1.8590E-06
-2.1595E-08	1.8191E-07	-1.1301E-07	2.8181E-06
8.6578E-08	1.5123E-07	9.5388E-07	1.9507E-06
1.8870E-07	9.9246E-08	6.2681E-07	1.5666E-06
1.4938E-07	-1.4454E-08	1.4556E-07	9.9393E-07
1.2329E-07	-1.3098E-07	-5.9974E-08	2.0319E-06
-3.5857E-08	-2.2775E-07	8.1907E-07	9.9809E-07
-7.2629E-08	-1.3839E-07	-8.6873E-07	8.7553E-07
-2.4861E-07	-4.9445E-08	-4.7143E-07	2.2924E-06
-1.8729E-07	5.3202E-08	2.4810E-07	1.6872E-06
-1.5717E-07	1.4880E-07	-4.0879E-07	1.8901E-06
2.7458E-08	1.9660E-07	5.5630E-07	2.0840E-06
1.5548E-07	1.2260E-07	-4.8659E-08	1.3351E-06
2.4519E-07	5.2729E-08	1.4545E-07	1.9671E-06
2.2164E-07	-7.4884E-08	-6.7981E-08	1.6912E-06
1.3876E-07	-1.8873E-07	8.2431E-07	1.9868E-06
-5.8527E-09	-1.9446E-07	-2.3699E-07	6.1163E-07
-6.0660E-08	-1.2221E-07	-1.3323E-07	2.4765E-06
-1.3910E-07	-4.0286E-09	1.9974E-07	6.8788E-07
-1.0161E-07	1.0603E-07	-1.2792E-06	2.7651E-06
-2.5308E-08	7.9248E-08	1.4704E-06	2.7265E-06
1.7528E-08	1.1222E-07	1.0161E-06	9.4544E-07
8.9947E-08	4.3576E-08	-3.0625E-07	5.9906E-07
8.9830E-08	-2.8874E-09	-8.6111E-07	2.4926E-06
6.1397E-08	-4.7601E-08	1.1066E-06	2.2182E-06
1.5856E-08	-4.6297E-08	3.2708E-07	1.2683E-06
-4.6833E-09	-4.7631E-08	2.5244E-07	1.7028E-06
1.2997E-08	-3.5442E-08	4.9080E-07	1.7978E-06
7.6008E-08	8.1452E-09	7.0641E-07	1.2322E-06
1.5573E-07	3.5013E-08	2.2825E-07	1.3682E-06
1.7616E-07	-6.0975E-08	4.7974E-07	1.0656E-06
1.1567E-07	-9.7323E-08	-9.7377E-08	1.4753E-06
9.1267E-08	-1.7169E-07	9.6611E-07	1.0812E-06
-2.0788E-08	-2.3157E-07	-5.6640E-07	3.6868E-07
-9.7805E-08	-1.6934E-07	-1.2189E-07	1.7633E-06
-1.4326E-07	-7.5135E-08	-6.8728E-08	4.0623E-07
-1.8037E-07	9.3500E-09	-1.4091E-06	1.6228E-06
-1.0916E-07	6.5684E-08	8.7724E-08	2.1962E-06
1.3708E-08	1.0806E-07	-1.1075E-07	1.2915E-06
6.1012E-08	3.2470E-08	-2.6866E-07	1.5596E-06
1.1969E-07	6.3063E-09	-6.4231E-07	1.4723E-06
1.2868E-07	-1.1230E-07	-3.6660E-07	2.4045E-06
8.2065E-08	-1.5409E-07	3.1231E-07	1.6906E-06
-1.8809E-08	-1.5138E-07	-3.0040E-07	1.8385E-06
-7.4667E-08	-8.4402E-08	3.6140E-07	1.8555E-06
-9.4075E-08	-4.4036E-08	6.5800E-09	1.3963E-06
-1.3327E-07	-5.4425E-09	-6.6381E-08	1.3123E-06
-6.3733E-08	6.1739E-08	-1.0997E-06	1.5762E-06
-3.0041E-10	3.4866E-08	-8.0903E-08	3.0125E-06
1.1487E-08	2.3731E-08	4.8728E-07	1.6708E-06
4.2286E-08	1.6844E-08	1.9917E-07	2.5714E-06
7.9647E-08	5.8459E-08	1.5725E-06	9.5828E-07
2.9129E-08	-6.5379E-08	-9.3028E-07	6.4996E-07
5.1165E-08	-1.4848E-08	-1.2151E-07	2.0649E-06
2.4820E-08	-1.0129E-07	-3.1933E-07	1.7085E-06
6.6373E-09	-5.8483E-08	7.1029E-07	2.0049E-06
7.7597E-10	-5.4280E-08	-6.6199E-08	7.1463E-07
-6.7452E-08	-5.0136E-08	-9.9877E-08	1.4504E-06
-4.2771E-08	-3.4918E-08	-1.3051E-06	6.1524E-07
-7.2399E-08	1.2565E-09	-1.2624E-06	3.7253E-06
-4.4717E-08	4.4924E-08	1.8329E-06	2.1491E-06
-1.7761E-08	3.9407E-08	-1.2545E-07	4.5182E-07
4.3619E-08	6.8456E-08	-7.0425E-07	1.4859E-06
5.6400E-08	3.1725E-08	-7.0634E-07	1.7245E-06
1.2121E-07	-2.3768E-09	-6.5529E-07	2.0419E-06
1.4915E-07	4.5314E-09	-6.6343E-07	2.4967E-06
1.3404E-07	-4.2924E-08	6.1470E-07	2.8910E-06
9.0854E-08	-4.6121E-08	7.3915E-07	8.1620E-07
-1.6895E-08	-9.4373E-08	-1.3021E-06	1.7701E-06
2.9803E-08	-3.8726E-08	4.8667E-07	2.4718E-06
5.7856E-08	-3.5658E-08	-3.1354E-07	1.2501E-06
3.6076E-08	-3.6817E-08	-2.3060E-07	1.8730E-06
5.8621E-08	-4.4420E-08	-1.2601E-06	1.5915E-06
9.9810E-08	-6.8538E-08	-5.2787E-07	3.3946E-06
2.8419E-08	-6.2814E-08	1.1975E-07	2.4533E-06
6.8554E-08	-3.9156E-08	5.9081E-07	3.0048E-06
5.6924E-08	-1.2427E-07	6.2364E-07	1.4891E-06
-2.3509E-08	-3.7325E-08	1.0502E-07	2.6033E-06
4.7438E-08	-6.5936E-08	1.1275E-06	1.4828E-06
-1.8125E-08	-7.8173E-08	-8.4735E-08	1.3694E-06
-1.7059E-08	-1.0148E-07	-4.5160E-08	1.5633E-06
-1.2883E-08	-3.7233E-08	-6.8445E-08	1.9953E-06
-3.5170E-08	-6.2087E-08	2.3417E-07	1.4441E-06
2.0503E-09	-4.3233E-08	-3.3668E-08	1.6431E-06
-8.5267E-08	-5.6174E-08	-1.9080E-07	5.9008E-07
-7.8544E-08	-6.1948E-08	-1.9336E-06	1.6637E-06
-8.3801E-08	2.0400E-09	-1.0084E-06	2.6929E-06
-6.4747E-08	-3.1840E-08	-9.3046E-07	3.2690E-06
2.6612E-08	1.7012E-08	9.4923E-07	3.2956E-06
6.6240E-09	1.3180E-08	6.2522E-07	1.3960E-06
1.0936E-08	5.4984E-09	-5.7648E-07	1.7231E-06
6.1919E-08	-2.1866E-08	-5.8658E-07	2.4506E-06
5.3343E-08	-3.4534E-08	9.1836E-08	2.5966E-06
-9.2156E-09	-2.2467E-08	-1.5958E-07	1.7725E-06
-6.6433E-08	-1.2090E-08	-1.0372E-06	2.7268E-06
-9.8822E-09	3.2647E-09	8.6142E-08	3.3041E-06
