jMRUI Data Textfile

Filename: Export_to_jmrui.txt

PointsInDataset: 2048
DatasetsInFile: 1
SamplingInterval: 0.250000
ZeroOrderPhase: 0E0
BeginTime: 0E0
TransmitterFrequency: 1.2326E8
MagneticField: 2.8936E0
TypeOfNucleus:  
NameOfPatient:  
DateOfExperiment:  
Spectrometer:  
AdditionalInfo: 
SignalNames:  


Signal and FFT
sig(real)	sig(imag)	fft(real)	fft(imag)
Signal 1 out of 1 in file
2.6801E-06	-8.5414E-07	-1.3557E-06	4.3390E-07
3.3837E-06	-2.1434E-06	-2.0105E-06	5.5672E-07
1.7448E-06	-2.7307E-06	-6.8277E-07	1.2050E-06
6.3879E-07	-2.7664E-06	-1.6951E-06	2.5293E-07
-9.1302E-07	-2.1781E-06	-1.1927E-06	2.4624E-06
-1.6040E-06	-1.1702E-06	3.8607E-07	9.2470E-07
-1.8088E-06	-7.8827E-08	-1.1692E-06	1.3224E-06
-1.0812E-06	5.5224E-07	1.1734E-06	2.1890E-06
-4.2040E-07	7.3867E-07	1.1012E-06	-1.0088E-06
3.4887E-07	3.7166E-07	-1.5942E-06	-2.5155E-07
5.7990E-07	-1.0895E-07	-9.0591E-07	1.0151E-06
5.5832E-07	-5.7659E-07	-1.1989E-06	1.1479E-06
2.5168E-07	-7.8203E-07	-6.4732E-08	2.3667E-06
-9.7643E-08	-7.2302E-07	1.0418E-06	5.5892E-07
-4.8924E-07	-5.2482E-07	-9.9551E-07	4.1833E-07
-5.1482E-07	-3.1832E-07	-9.4301E-08	2.2100E-06
-5.5311E-07	-8.0481E-08	9.6592E-07	1.0974E-06
-4.3053E-07	-2.0361E-08	7.5117E-07	8.4740E-07
-4.1817E-07	-3.9851E-08	6.3375E-07	-2.7227E-07
-3.5754E-07	-6.8087E-08	-1.1748E-06	6.6899E-07
-5.3412E-07	5.4000E-08	8.2979E-07	1.9897E-06
-5.5656E-07	2.4108E-07	1.0311E-06	-2.4771E-07
-5.0664E-07	3.8214E-07	-3.5344E-07	1.2856E-07
-3.2124E-07	5.1436E-07	-5.5065E-07	4.4917E-07
-1.4520E-07	5.5698E-07	-5.1029E-07	1.6318E-06
1.1937E-07	3.5699E-07	7.5748E-07	1.1835E-06
2.0458E-07	1.4599E-07	2.3593E-07	9.4106E-07
2.0814E-07	-8.8519E-08	9.1548E-07	7.0129E-07
5.4827E-08	-1.8071E-07	-1.5118E-07	1.6247E-07
-1.7678E-07	-1.3325E-07	-2.5206E-08	1.1854E-06
-3.8109E-07	8.7125E-08	2.6213E-07	7.9369E-07
-3.0795E-07	3.4987E-07	-2.4698E-07	1.1536E-06
-2.7235E-07	5.7999E-07	5.7822E-07	2.3640E-06
-6.2639E-08	6.1826E-07	2.5984E-06	8.8213E-07
2.3288E-07	5.2528E-07	5.9960E-07	-8.4826E-07
3.7103E-07	3.6668E-07	1.6011E-07	7.8581E-07
4.6335E-07	1.6736E-07	8.3205E-07	4.1296E-07
4.0207E-07	-1.6494E-08	8.2987E-07	1.3110E-07
2.2226E-07	-7.0452E-08	8.9688E-08	-5.0580E-07
2.3119E-07	-5.7554E-08	-5.6964E-07	5.4235E-07
8.4293E-08	-3.3461E-08	6.5647E-08	8.7980E-07
2.2405E-07	-6.1914E-08	1.5288E-07	7.4582E-07
1.9341E-07	-1.0146E-07	1.6877E-07	1.0657E-06
1.5881E-07	-1.6195E-07	9.9637E-07	7.0508E-07
5.9840E-08	-2.6944E-07	-1.0517E-07	6.9646E-08
-4.2993E-08	-3.2741E-07	3.3232E-07	1.3497E-06
-1.5451E-07	-2.5557E-07	6.0243E-07	1.5854E-07
-1.9050E-07	-9.8288E-08	8.5283E-09	1.1648E-06
-2.0889E-07	6.8286E-08	1.3843E-06	3.6444E-07
-9.7030E-08	5.0363E-08	-4.6934E-07	-5.9439E-07
5.9163E-08	8.3882E-08	-8.9609E-07	1.7412E-06
1.2306E-07	7.2350E-08	1.5811E-06	1.4817E-06
9.0988E-08	-8.1182E-08	3.7962E-07	-5.1753E-07
-2.0675E-08	-1.0512E-07	-3.9209E-07	1.1104E-06
-1.5722E-07	-1.1014E-07	6.0434E-07	8.0308E-07
-2.5002E-07	-4.5703E-08	2.7037E-07	5.1955E-07
-2.7977E-07	7.2996E-08	-4.4356E-07	2.9712E-07
-2.1956E-07	1.9426E-07	-7.4654E-07	2.0367E-06
-4.4988E-08	1.8464E-07	1.0283E-06	1.9633E-06
9.1713E-08	1.1371E-07	9.2187E-07	1.3480E-06
1.8159E-07	-1.6586E-08	1.2690E-06	1.1320E-06
1.3147E-07	-8.9939E-08	1.1850E-06	9.1501E-07
4.4717E-10	-1.6121E-07	1.6186E-06	1.7448E-07
-1.5764E-07	-1.1334E-07	6.7616E-08	-5.6708E-07
-2.4363E-07	-2.1973E-08	-4.9848E-07	1.1056E-06
-2.0383E-07	1.3369E-07	5.3483E-07	1.3336E-06
-1.6678E-07	2.3408E-07	6.7995E-07	1.3420E-06
-5.1165E-09	2.5108E-07	1.3493E-06	6.3763E-07
5.3275E-08	1.9185E-07	-3.4660E-07	6.0706E-07
1.5463E-07	8.8105E-08	1.4171E-06	2.7019E-06
6.0574E-08	-7.9818E-09	2.7062E-06	-3.5821E-07
-2.6225E-08	-7.9154E-08	1.9636E-07	-5.4543E-07
-1.0612E-07	-2.4371E-08	1.3891E-07	3.6187E-07
-1.5099E-07	6.4979E-08	1.9552E-07	9.9443E-07
-1.0332E-07	1.6896E-07	8.4807E-07	7.5695E-07
-3.3866E-08	1.7014E-07	6.1190E-07	7.1317E-07
5.4949E-08	1.8516E-07	5.9142E-07	3.9348E-07
2.0144E-07	1.0264E-07	2.4951E-07	1.2908E-06
1.3431E-07	1.1288E-08	1.5982E-06	5.8312E-07
6.5167E-08	-3.0514E-08	-1.0053E-07	1.8975E-07
1.7069E-09	-4.7337E-08	1.0219E-06	1.6003E-06
-1.3402E-08	2.6147E-08	1.1877E-06	-1.4969E-07
7.0475E-09	1.2937E-07	-9.0533E-08	6.5832E-07
5.3636E-08	1.6855E-07	8.0356E-07	1.3243E-06
9.5072E-08	8.7308E-08	1.5313E-06	9.4471E-07
1.6050E-07	4.8160E-08	1.7095E-06	-4.8323E-07
2.0247E-07	-3.0875E-08	-3.8515E-07	-8.6281E-07
1.4829E-07	-1.4825E-07	-5.6524E-07	1.1442E-06
-3.8110E-09	-1.8224E-07	5.0424E-07	1.1220E-06
-5.5897E-08	-1.6426E-07	7.0128E-07	1.1277E-06
-1.8202E-07	-6.8418E-08	1.2061E-06	4.1118E-07
-1.5379E-07	7.5477E-08	1.1963E-07	-1.3930E-07
-7.6865E-08	1.6801E-07	-5.3387E-07	1.0674E-06
3.6502E-08	1.6527E-07	7.1743E-07	1.7945E-06
2.2299E-07	1.2085E-07	1.0221E-06	7.1634E-07
2.3724E-07	3.2041E-08	6.0547E-07	1.1650E-06
1.8193E-07	-1.4453E-07	1.4284E-06	7.2738E-07
1.3155E-07	-1.6686E-07	5.5454E-07	1.1127E-07
6.5828E-09	-2.1192E-07	2.9612E-07	9.9381E-07
-8.3298E-08	-1.6462E-07	1.2489E-06	9.1852E-07
-1.4765E-07	-9.5960E-08	6.7588E-07	-1.6199E-07
-1.2358E-07	-4.6748E-08	-6.6757E-08	8.1890E-07
-1.2566E-07	1.2163E-08	5.7792E-07	7.7409E-07
-7.6965E-08	-2.2519E-08	8.7570E-08	1.2113E-06
-8.7048E-08	-2.7048E-08	1.4812E-06	1.2985E-06
-7.8225E-08	2.1256E-08	7.1795E-07	-2.3210E-07
-1.1293E-07	2.7727E-08	-2.5471E-07	1.1520E-06
-1.0819E-07	4.9840E-08	1.2538E-06	1.3309E-06
-4.0382E-08	1.1238E-07	7.0889E-07	1.2293E-07
4.2081E-08	1.4603E-07	7.3677E-08	1.1173E-06
6.9936E-08	1.1102E-07	1.1448E-06	1.0470E-06
6.2907E-08	-7.1389E-09	2.3906E-07	2.2500E-07
8.5485E-08	-3.1317E-08	9.2620E-08	2.0463E-06
4.8393E-08	-9.5538E-08	2.2989E-06	9.5428E-07
-5.2161E-08	-6.9995E-08	7.1758E-08	-3.3036E-07
-1.2012E-07	-5.7488E-08	5.0604E-07	1.6197E-06
-1.3374E-07	-9.4559E-09	7.0498E-07	4.9920E-07
-1.3873E-07	8.4081E-08	6.4456E-07	1.6204E-06
-6.5015E-08	8.6912E-08	1.2742E-06	6.6083E-07
2.1493E-09	1.3378E-07	1.0888E-06	1.0082E-06
9.6297E-08	3.7042E-08	9.3239E-07	-2.4776E-07
1.0764E-07	-8.6118E-09	-1.1454E-07	1.2344E-06
1.0729E-07	-7.4251E-08	1.3597E-06	6.0815E-07
5.4543E-08	-1.3384E-07	-2.0769E-07	4.0190E-07
1.9508E-08	-8.4730E-08	3.3717E-08	1.7101E-06
-4.7081E-08	-5.2933E-08	1.4885E-06	2.1118E-06
-6.2799E-08	1.8640E-09	1.6155E-06	-8.2174E-08
-3.3807E-08	5.6066E-08	-1.3910E-08	1.3803E-06
3.5394E-08	5.7602E-08	1.9686E-06	8.6484E-07
4.8018E-08	5.7001E-08	3.5826E-07	6.0799E-07
4.7895E-08	3.5475E-08	1.8116E-06	7.2217E-07
3.3559E-09	8.9966E-09	1.3906E-08	-2.9879E-07
2.8790E-08	-1.1242E-08	2.8285E-07	1.2666E-06
-1.9692E-08	-3.2434E-08	2.6278E-07	1.1011E-06
-3.1030E-08	-2.3116E-08	1.1666E-06	1.6734E-06
6.2220E-08	-1.7559E-08	9.2130E-07	7.0151E-07
7.4971E-08	1.7422E-08	1.1970E-06	1.7745E-06
9.2663E-08	1.2014E-08	2.5394E-06	8.6750E-08
7.2439E-08	-1.0139E-07	-1.5685E-07	-1.1180E-06
3.7173E-08	-1.1883E-07	-4.4822E-07	1.9684E-06
-2.5644E-08	-1.3468E-07	1.6020E-06	6.9418E-07
-3.5973E-08	-1.2694E-07	-2.4491E-07	1.0331E-06
-1.2590E-07	-6.5438E-08	1.6934E-06	1.5011E-06
-9.1909E-08	-2.7918E-08	6.5927E-07	3.6846E-07
-8.9174E-08	2.2872E-08	1.1141E-06	8.3796E-07
-3.7361E-08	1.5489E-08	-1.3540E-07	6.2410E-07
4.7907E-08	3.0471E-08	1.3514E-06	2.1819E-06
5.0239E-08	-4.1101E-10	1.5957E-06	3.9727E-08
-3.5670E-09	-6.0013E-08	4.6249E-07	7.1678E-07
-3.8235E-09	-1.0406E-07	9.3620E-07	8.8330E-07
-7.4650E-08	-6.3200E-08	1.0581E-06	6.2016E-07
-9.0850E-08	-4.8239E-08	6.9124E-07	4.2264E-07
-7.5876E-08	-3.0651E-08	5.8438E-07	3.2340E-07
-4.2924E-08	-3.3492E-08	-3.6315E-07	8.3897E-07
-6.8355E-08	-7.3836E-09	8.0087E-07	1.7272E-06
-2.4048E-08	6.7659E-08	7.8350E-07	7.4554E-07
1.2821E-08	4.0646E-08	5.3469E-07	1.1323E-06
4.3859E-08	2.1598E-08	7.3401E-07	1.4355E-06
3.3609E-09	2.8728E-08	1.6864E-06	5.9864E-07
2.1326E-08	2.1075E-08	-4.2898E-07	-2.3656E-08
1.3334E-08	-2.0113E-08	2.6113E-07	2.0370E-06
3.6329E-08	-5.0004E-08	5.8202E-07	8.4274E-07
5.5186E-09	-5.0746E-08	1.4176E-07	1.7920E-06
-6.8119E-09	-2.8595E-08	7.0919E-07	1.7947E-06
-4.2236E-08	-6.2319E-08	1.1336E-06	1.7954E-06
-3.9274E-08	-2.0276E-08	7.5548E-07	1.5135E-06
-4.3136E-09	-2.6434E-08	1.5384E-06	2.0521E-06
-3.6297E-08	2.0659E-08	1.1050E-06	1.0387E-06
-3.0772E-08	2.6921E-08	1.2398E-06	2.2953E-06
1.6161E-08	5.0806E-08	2.1754E-06	1.7786E-06
6.0239E-08	1.0222E-08	3.1967E-06	9.5643E-07
7.1845E-08	-9.9124E-09	1.1629E-06	-1.2847E-06
1.1580E-07	2.1316E-08	3.8368E-08	1.6913E-06
8.5425E-08	2.3405E-08	1.9803E-06	1.0998E-06
5.1643E-08	-3.2029E-08	1.6698E-06	7.7759E-07
2.7116E-08	-6.6684E-08	1.2673E-06	-2.4966E-07
4.6448E-08	-5.6291E-08	5.6514E-07	1.1702E-06
4.2519E-09	-4.0162E-08	1.4770E-06	1.4594E-07
7.2762E-09	-7.4391E-08	6.7639E-08	1.0664E-06
1.8994E-08	-3.4076E-08	1.5126E-06	9.4979E-07
2.4510E-08	-1.9572E-08	2.9231E-07	1.0102E-06
3.9440E-08	-1.7788E-08	1.7060E-06	1.6898E-06
2.8122E-08	-6.0986E-08	1.7128E-06	5.0919E-07
2.4647E-08	-1.1005E-07	1.2292E-06	3.6846E-08
-3.1531E-08	-7.4165E-08	-2.5096E-08	4.9976E-07
-1.0347E-10	-5.7027E-08	4.7040E-07	1.9749E-06
2.4784E-09	-6.0091E-08	2.1595E-06	1.9387E-06
-2.3766E-08	-5.4875E-08	2.1282E-06	-2.4083E-07
-4.0812E-08	-5.2543E-08	2.7008E-07	8.6317E-07
-2.4603E-08	1.4244E-08	2.3324E-06	1.1193E-06
-3.1796E-08	-4.6691E-08	1.2434E-06	-5.9263E-07
-5.5631E-08	8.2482E-09	4.1136E-07	1.6782E-07
1.8094E-09	-2.9334E-08	7.5426E-08	1.0098E-06
-9.8981E-12	-2.0627E-08	1.5815E-06	1.4288E-06
-8.0431E-08	-2.8898E-08	1.0465E-06	-5.7039E-08
-5.0440E-08	2.4697E-08	5.2873E-07	1.0889E-06
-1.2837E-08	-2.9809E-08	1.3973E-06	6.7606E-07
-5.5721E-09	-1.1454E-08	6.7773E-07	3.5130E-07
-1.1751E-08	7.9000E-09	8.5693E-07	1.0819E-06
2.3663E-08	-2.7462E-08	1.5357E-06	1.1612E-07
-2.8607E-08	-2.4439E-08	-3.5432E-07	-2.1949E-07
-3.4911E-08	-4.3502E-09	-1.0776E-07	2.0019E-06
1.5020E-09	-2.6797E-08	1.6754E-06	1.4433E-06
2.0696E-08	1.5880E-10	1.2611E-06	2.1442E-07
-2.3481E-08	-1.3123E-08	2.3563E-07	4.4061E-07
2.8946E-08	8.7023E-09	5.5534E-07	1.4323E-06
