jMRUI Data Textfile

Filename: Export_to_jmrui.txt

PointsInDataset: 2048
DatasetsInFile: 1
SamplingInterval: 0.250000
ZeroOrderPhase: 0E0
BeginTime: 0E0
TransmitterFrequency: 1.2326E8
MagneticField: 2.8936E0
TypeOfNucleus:  
NameOfPatient:  
DateOfExperiment:  
Spectrometer:  
AdditionalInfo: 
SignalNames:  


Signal and FFT
sig(real)	sig(imag)	fft(real)	fft(imag)
Signal 1 out of 1 in file
1.7100E-06	-9.8388E-07	-1.3095E-06	1.3892E-06
2.0161E-06	-1.9927E-06	2.2507E-07	1.2626E-06
7.6634E-07	-2.1118E-06	-4.4261E-07	5.2607E-08
1.0032E-07	-1.9685E-06	-9.0428E-07	1.4820E-06
-8.5666E-07	-1.3321E-06	7.4647E-07	1.1564E-06
-1.1936E-06	-5.3201E-07	7.2450E-08	5.8516E-08
-1.1702E-06	2.1019E-07	-6.0433E-07	6.4251E-07
-6.4291E-07	4.7254E-07	8.3991E-08	1.6889E-06
-1.4306E-07	4.8901E-07	1.4825E-06	5.1568E-07
2.7467E-07	9.3026E-08	3.8834E-07	-2.9718E-07
3.0629E-07	-2.4820E-07	3.2772E-07	-4.8353E-07
2.4588E-07	-5.0559E-07	-1.1349E-06	-1.9809E-08
-7.3385E-08	-6.1193E-07	3.3873E-07	1.0587E-06
-2.6266E-07	-4.5078E-07	-1.2225E-07	-2.1159E-07
-4.5564E-07	-2.2718E-07	1.8858E-07	7.8993E-07
-3.7864E-07	-1.2984E-08	7.8407E-08	-5.7741E-07
-3.6106E-07	8.5595E-08	-6.7181E-07	6.0738E-07
-2.1049E-07	5.9057E-08	1.5476E-07	1.3959E-07
-2.3710E-07	-1.9165E-08	-7.1774E-07	5.0782E-07
-2.5514E-07	-4.6058E-08	6.2253E-07	9.6047E-07
-4.0641E-07	2.4614E-08	4.2921E-07	-1.0994E-06
-4.1813E-07	1.6296E-07	-2.1759E-06	-2.1632E-07
-4.3669E-07	3.2475E-07	-9.1065E-07	2.1161E-06
-2.7161E-07	4.7575E-07	2.1856E-07	1.5112E-06
-9.9510E-08	4.6015E-07	1.0680E-06	1.2953E-06
1.1299E-07	3.2381E-07	6.1160E-07	-1.8925E-07
2.0879E-07	1.4600E-07	1.8220E-07	7.1868E-07
1.4835E-07	-7.0006E-08	5.1015E-07	-2.1800E-07
2.1138E-08	-7.5604E-08	-2.7860E-07	5.3289E-07
-1.3288E-07	-5.8319E-08	5.6442E-07	-2.7536E-08
-1.6816E-07	2.0457E-07	-6.0584E-07	1.0396E-07
-2.3552E-07	3.3298E-07	8.9376E-08	3.3841E-07
-9.8298E-08	4.5156E-07	-7.6855E-07	4.1060E-07
9.1082E-08	4.8589E-07	5.6127E-07	7.7674E-07
2.7921E-07	3.5612E-07	-1.0640E-06	-7.8006E-07
3.7471E-07	2.1819E-07	-1.3302E-06	2.4373E-06
2.6242E-07	2.2783E-08	1.4471E-06	9.5338E-07
2.8738E-07	-1.0613E-07	-6.9078E-07	9.2277E-08
1.7821E-07	-1.0850E-07	-3.7936E-07	1.4058E-06
6.9743E-08	-1.3282E-07	-9.1715E-08	1.8129E-06
1.2867E-07	-2.1018E-08	1.4390E-06	1.4881E-06
1.6071E-07	-3.2700E-08	5.8190E-07	4.6103E-07
1.8070E-07	-1.8744E-08	1.2289E-06	8.7274E-07
1.4653E-07	-1.4275E-07	4.2912E-07	-3.3332E-07
7.3929E-08	-2.4790E-07	3.2211E-07	5.3742E-07
-2.7049E-08	-2.1597E-07	-4.3426E-07	-3.3965E-08
-1.8094E-07	-1.8235E-07	1.0435E-07	1.9876E-06
-1.5930E-07	-8.5977E-08	1.2643E-06	1.0344E-07
-1.2649E-07	3.1979E-08	-2.0787E-07	7.4999E-07
-7.7709E-08	8.4943E-08	8.8579E-07	7.1678E-07
5.3112E-08	7.1948E-08	4.0227E-07	6.4073E-07
4.2226E-08	-6.5539E-10	1.0357E-06	1.2094E-07
4.4651E-08	-5.7982E-08	-4.4589E-07	-1.4466E-07
-2.1835E-08	-1.1314E-07	-1.0833E-07	1.3871E-06
-8.9388E-08	-2.4938E-08	1.0648E-06	7.2614E-07
-1.8210E-07	3.5483E-09	-2.5907E-08	3.3557E-08
-1.8709E-07	7.3154E-08	2.6066E-07	1.5034E-06
-8.0618E-08	1.2459E-07	1.2169E-06	9.4127E-08
2.4069E-08	1.3360E-07	-2.5356E-07	3.0067E-07
9.5421E-08	1.8252E-08	2.1007E-07	6.4588E-07
4.6564E-08	-6.2805E-08	-1.6171E-07	1.3593E-06
3.7075E-09	-1.0757E-07	1.5321E-06	9.1610E-07
-8.4021E-08	-1.1667E-07	-1.6468E-07	-5.4619E-08
-1.7323E-07	-5.5614E-08	3.6456E-07	1.5563E-06
-2.5810E-07	4.1841E-08	6.3440E-07	8.2053E-07
-1.9115E-07	2.1726E-07	1.2674E-06	1.4151E-06
-1.0930E-07	2.3843E-07	1.3441E-06	-4.3063E-07
3.9015E-09	1.7566E-07	-3.4373E-07	4.4420E-07
4.3120E-08	1.2140E-07	7.4069E-07	1.2976E-06
1.0093E-07	4.3997E-08	1.2502E-06	5.7481E-07
7.5839E-08	2.3263E-08	6.1158E-07	-6.6180E-08
3.7249E-08	4.6788E-09	2.5790E-08	8.1134E-07
-7.7633E-08	2.1159E-08	8.4455E-07	1.2600E-06
-7.1306E-08	9.4046E-08	1.7371E-06	7.6837E-07
-3.0055E-08	8.1069E-08	1.0782E-06	-9.4687E-07
7.8355E-08	1.0387E-07	-6.6922E-07	4.2767E-07
9.6173E-08	9.9346E-08	8.1757E-07	9.6180E-07
1.2998E-07	2.2717E-08	8.6911E-08	6.9146E-07
1.0735E-07	-2.2646E-08	1.2780E-06	1.3432E-06
8.4844E-08	-2.3062E-08	8.0679E-07	9.6234E-08
-1.8906E-08	1.0353E-08	8.4344E-07	1.0881E-06
-3.8561E-08	2.9661E-08	8.2813E-07	2.0451E-07
-3.6360E-08	1.3688E-07	7.4687E-07	1.9716E-06
5.9651E-08	1.1098E-07	3.5721E-06	2.8065E-07
1.0025E-07	1.4009E-07	6.4511E-07	-2.1935E-06
1.9634E-07	-1.1025E-08	-3.7848E-07	5.8782E-07
1.2698E-07	-6.4926E-08	8.9859E-07	2.0680E-08
1.0154E-07	-1.9897E-07	-3.3260E-07	1.0052E-06
-7.8991E-09	-1.6088E-07	2.4870E-06	1.6313E-06
-9.5199E-08	-1.2786E-07	2.1318E-06	-1.3812E-06
-7.9843E-08	-2.2768E-08	5.4387E-07	-8.8504E-07
-1.2660E-07	3.5930E-08	3.7287E-07	-8.7715E-07
1.2832E-08	7.2282E-08	-9.7737E-08	-4.4287E-07
3.2715E-08	9.0833E-08	-3.3703E-07	-3.4651E-07
1.7602E-07	3.4925E-08	-5.7856E-07	5.1164E-07
1.8278E-07	-4.0323E-08	-9.5587E-08	9.4998E-07
1.2440E-07	-1.4473E-07	7.4419E-07	1.2219E-06
3.9790E-08	-2.1060E-07	9.9542E-07	1.6572E-07
-2.2394E-08	-1.6489E-07	6.8020E-07	5.5441E-07
-7.5242E-08	-1.2795E-07	1.1840E-06	-5.4221E-07
-1.7228E-07	-3.2078E-08	-6.8296E-07	-3.7233E-07
-1.1723E-07	-3.1481E-08	2.0895E-08	9.8238E-07
-1.0210E-07	5.7741E-08	3.7646E-07	4.0569E-07
-9.4807E-08	-6.7115E-09	-2.5115E-08	5.4836E-07
-6.9317E-08	4.0480E-08	1.2309E-07	1.2199E-06
-6.3288E-08	4.9599E-08	9.3800E-07	1.0731E-06
-9.0844E-08	3.7823E-08	8.0268E-07	8.5969E-07
-4.4202E-08	1.2736E-08	1.3644E-06	7.2972E-07
-4.7730E-08	9.3586E-08	9.7228E-07	3.0330E-07
2.7205E-08	1.2341E-07	1.5895E-06	4.8785E-07
5.2851E-08	5.3432E-08	1.2726E-06	-8.9376E-07
4.7396E-08	2.0483E-08	3.1057E-07	-4.6810E-07
6.6443E-08	-1.6062E-08	2.1548E-07	-8.0116E-07
9.2421E-10	-7.1274E-08	-1.3281E-06	1.4247E-09
-6.6426E-08	-7.1903E-08	-1.3315E-08	1.9735E-06
-6.3559E-08	2.4014E-09	1.4547E-06	3.0193E-07
-1.1734E-07	4.0149E-08	-4.2066E-07	-1.0716E-07
-6.3500E-08	5.5311E-08	-4.1341E-08	1.6326E-06
-7.6551E-09	1.1723E-07	1.3877E-06	1.3957E-06
3.1657E-08	1.2416E-07	1.8848E-06	-6.7738E-08
1.0433E-07	5.7543E-08	8.3375E-08	-8.2177E-07
7.1985E-08	-9.3747E-09	-7.2030E-08	7.8117E-07
4.2388E-08	-5.9645E-08	4.1893E-07	3.5747E-07
4.5988E-08	-8.4105E-08	2.4229E-07	9.4980E-07
-8.9846E-09	-5.0896E-08	8.3247E-07	5.4822E-07
-7.7943E-08	3.4909E-08	4.7931E-07	6.6524E-07
-7.2707E-08	-1.6104E-09	8.0653E-07	4.4159E-07
3.9434E-08	6.4240E-08	3.1721E-07	6.0981E-07
4.8371E-08	7.7788E-08	8.0682E-07	9.4939E-07
3.7361E-08	7.7778E-08	1.2143E-06	7.0474E-07
4.1832E-08	3.4124E-08	1.1898E-06	-2.1526E-09
5.0838E-08	7.3082E-09	6.8045E-07	2.3495E-07
-5.8002E-09	-5.9020E-09	1.2368E-06	-5.8931E-08
3.8749E-08	-8.6156E-09	3.3122E-07	-7.7960E-07
1.3729E-08	-1.5892E-09	-4.8029E-07	1.7160E-07
3.1923E-08	-1.5754E-08	4.3223E-07	7.2678E-07
5.5282E-08	-7.1916E-08	-4.6081E-08	-2.0143E-07
3.8160E-08	-5.1547E-08	-5.1048E-07	1.5253E-06
9.0237E-08	-7.6324E-08	1.4537E-06	1.1733E-06
1.4273E-08	-6.9547E-08	9.8685E-07	4.8028E-08
-7.9322E-08	-1.0756E-07	5.7037E-07	-3.0222E-07
-8.0229E-08	-8.3225E-08	-3.2856E-07	-7.7838E-08
-5.6324E-08	-2.4291E-08	-7.0875E-07	4.4782E-07
-4.8133E-08	2.4933E-08	-5.1311E-07	1.8452E-06
-2.4106E-08	8.8187E-09	6.9882E-07	1.3283E-06
-8.4844E-09	2.4237E-08	3.4052E-07	1.9057E-06
-1.5003E-08	-9.1575E-10	2.0410E-06	8.8416E-07
1.6359E-08	-4.5295E-08	-2.0609E-08	3.9874E-07
1.3243E-08	-7.6216E-08	1.1964E-06	1.5507E-06
2.4530E-08	-5.8608E-08	7.0084E-07	7.7985E-07
-2.1701E-08	-3.9789E-08	1.7461E-06	1.3891E-06
-8.6103E-08	-6.6553E-08	1.2873E-06	-2.9675E-08
-3.5568E-08	-3.0367E-08	1.1716E-06	4.4583E-07
-5.3762E-08	-1.3596E-08	3.9983E-07	-2.3777E-08
2.6347E-08	6.3234E-08	8.3510E-07	1.1838E-06
-1.8160E-08	2.9606E-08	9.8942E-07	2.1151E-07
-5.7400E-10	4.8604E-08	7.2526E-07	8.0682E-07
2.5991E-09	2.1753E-09	7.0922E-07	6.7758E-07
1.9264E-08	-3.6183E-09	1.3788E-06	1.3811E-06
3.0332E-08	2.1772E-08	1.7970E-06	2.4097E-07
2.2829E-08	-3.9196E-08	1.6247E-06	1.2085E-07
-2.7901E-08	-1.0860E-10	9.0827E-07	-7.5296E-07
-3.5807E-08	-1.7245E-08	3.2739E-07	6.0384E-07
-2.3117E-08	-2.8435E-08	1.5413E-06	4.4120E-07
2.5677E-09	-5.5646E-08	1.5063E-06	-6.2711E-07
7.6930E-09	1.9346E-08	-5.5035E-08	-9.1917E-07
-7.4208E-08	6.3212E-09	3.3693E-07	6.6822E-07
-3.7715E-09	-7.1766E-09	5.2310E-07	-7.1332E-07
3.3726E-08	2.6825E-08	-6.1911E-07	6.6276E-07
3.2036E-08	1.9522E-08	6.5003E-07	5.2359E-07
3.8667E-08	1.6952E-08	-3.7812E-07	7.4896E-07
5.1577E-08	5.1953E-09	1.0518E-06	1.8529E-06
7.1476E-08	-2.3438E-08	2.0112E-06	1.3126E-07
9.3967E-08	-2.4105E-08	4.3878E-07	-4.9985E-07
5.4471E-08	-3.6176E-08	6.0713E-07	5.2616E-07
8.6710E-08	-3.9676E-08	5.6180E-07	-2.5923E-07
-1.6025E-09	-5.7259E-08	1.8457E-07	5.8053E-07
4.5700E-08	-4.1883E-08	8.0652E-07	1.1470E-07
7.2893E-09	-3.8696E-08	2.0618E-07	-2.0759E-07
2.2203E-08	-6.0955E-08	-1.0740E-06	2.6779E-07
-2.4284E-08	2.0484E-08	3.9327E-07	3.0105E-06
-4.7956E-09	-3.4963E-08	2.9997E-06	-1.5437E-07
-1.2555E-08	-6.7519E-08	-4.1096E-07	-7.8797E-07
1.5598E-08	-3.1844E-08	6.4688E-07	7.1004E-07
-2.2102E-08	-9.2902E-09	9.7453E-08	-3.5798E-07
-8.2673E-09	-3.2785E-08	-3.4293E-07	3.6659E-07
-4.5051E-08	-3.7694E-08	-7.9533E-07	9.8749E-07
-2.1342E-08	-4.0911E-08	5.0000E-07	2.1800E-06
-3.2795E-09	-4.9758E-08	1.4904E-06	8.7078E-07
-1.1504E-07	2.6093E-08	8.7894E-07	1.9356E-07
-1.2037E-08	1.2883E-08	1.8932E-07	3.0371E-07
-2.6919E-08	5.2910E-09	3.9028E-07	9.1546E-07
-5.0729E-08	6.9755E-08	6.4111E-07	4.5758E-07
-3.0763E-08	-2.9018E-08	1.0080E-07	3.7779E-07
-2.2311E-08	-3.0258E-09	-2.8977E-07	9.9757E-07
-2.3027E-08	5.3951E-08	6.0728E-07	1.6871E-06
-3.1764E-08	-3.8472E-09	9.3663E-07	5.0154E-07
9.7654E-10	2.4308E-08	-1.9729E-07	1.0345E-06
-2.1902E-08	1.7993E-08	8.1439E-07	1.7772E-06
-4.4431E-09	1.6397E-08	1.3473E-06	1.1648E-06
-3.1330E-08	2.8199E-10	1.3708E-06	1.8091E-07
-2.3051E-08	7.0221E-09	-3.6303E-07	2.6553E-07
-1.1610E-08	-3.8488E-08	4.2850E-07	2.0484E-06
-2.7528E-08	3.4633E-08	1.2744E-06	1.1807E-06
1.4029E-08	-1.1283E-08	1.4250E-06	1.2264E-06
