jMRUI Data Textfile

Filename: Export_to_jmrui.txt

PointsInDataset: 2048
DatasetsInFile: 1
SamplingInterval: 0.250000
ZeroOrderPhase: 0E0
BeginTime: 0E0
TransmitterFrequency: 1.2326E8
MagneticField: 2.8936E0
TypeOfNucleus:  
NameOfPatient:  
DateOfExperiment:  
Spectrometer:  
AdditionalInfo: 
SignalNames:  


Signal and FFT
sig(real)	sig(imag)	fft(real)	fft(imag)
Signal 1 out of 1 in file
1.0530E-06	-9.2233E-07	5.1840E-07	8.4035E-07
1.1065E-06	-1.6398E-06	3.4178E-07	1.4133E-07
3.1635E-07	-1.5165E-06	6.9581E-07	1.4500E-06
-1.9858E-07	-1.3564E-06	2.3356E-06	-1.2149E-06
-7.1045E-07	-7.2431E-07	-1.4199E-06	-1.7208E-06
-8.1473E-07	-1.7322E-07	-1.3129E-06	7.8777E-07
-6.9834E-07	2.4832E-07	-3.0804E-07	1.9064E-06
-2.7636E-07	2.7914E-07	2.2203E-06	7.3962E-07
4.5818E-08	2.2021E-07	2.6485E-07	-1.5661E-06
2.0110E-07	-1.2575E-07	-1.0252E-06	2.0637E-07
1.2029E-07	-3.7821E-07	3.0459E-07	1.0957E-06
1.9053E-08	-4.9009E-07	6.8872E-07	-6.5978E-07
-2.0991E-07	-4.1206E-07	-1.2106E-06	4.8513E-07
-2.9219E-07	-2.4943E-07	9.2563E-07	8.4621E-07
-3.7245E-07	-2.5000E-08	-4.5851E-07	5.3833E-08
-2.7286E-07	1.0661E-07	9.5492E-07	1.0342E-06
-1.2896E-07	1.3956E-07	1.4039E-07	-6.2126E-07
-5.2161E-08	-8.1653E-09	-5.5826E-08	7.2045E-07
-3.3336E-08	-4.0793E-08	4.2332E-07	3.2115E-07
-1.6726E-07	-7.8308E-08	5.5303E-07	-8.7181E-08
-3.2471E-07	-3.7623E-08	-6.4389E-07	3.7025E-07
-3.6718E-07	7.0842E-08	1.7301E-06	6.9468E-07
-2.8595E-07	2.4357E-07	-9.9473E-07	-2.0269E-06
-2.2413E-07	3.5901E-07	-9.8638E-07	2.8019E-06
-2.5372E-09	3.4250E-07	2.6284E-06	-5.7248E-07
1.3366E-07	2.1738E-07	-1.7964E-06	-1.3206E-06
2.0072E-07	3.7254E-08	-9.5031E-07	2.0252E-06
1.3135E-07	-6.9386E-08	1.1755E-06	1.1623E-06
-3.2038E-08	-1.1926E-07	2.8378E-07	-3.5763E-07
-9.6873E-08	-3.0329E-08	-7.3621E-07	1.1172E-06
-1.6663E-07	8.8280E-08	1.0596E-06	1.5595E-06
-1.1915E-07	2.8486E-07	1.0290E-06	2.0817E-07
1.5452E-08	3.3670E-07	6.1601E-07	7.2866E-07
1.1315E-07	3.0401E-07	1.6642E-06	1.1469E-07
2.9303E-07	1.9199E-07	3.4515E-07	-1.0895E-06
3.3016E-07	5.8078E-08	-5.9394E-07	2.7284E-07
2.8383E-07	-3.0340E-08	4.2861E-07	1.0851E-06
1.2887E-07	-1.5234E-07	1.3747E-06	1.5704E-07
4.8254E-08	-9.4629E-08	4.5143E-07	-6.3299E-07
1.0190E-07	-7.7738E-08	9.5372E-08	-3.5684E-07
7.3468E-08	-1.3101E-08	-6.2589E-07	5.7453E-08
1.1428E-07	-2.7100E-08	3.5546E-07	8.7184E-07
1.2285E-07	-1.0259E-07	2.6836E-07	-1.9802E-07
1.4348E-07	-1.5664E-07	-2.6521E-07	3.0923E-07
1.5001E-08	-2.3485E-07	-4.2307E-07	8.3620E-07
-4.4835E-08	-2.3266E-07	9.1042E-07	1.4526E-06
-8.3529E-08	-1.6184E-07	1.0354E-06	-9.0971E-08
-1.3863E-07	-7.2590E-08	4.7960E-07	-9.6655E-08
-1.2914E-07	2.8088E-08	-6.8699E-07	-6.2189E-08
-4.9943E-08	4.5989E-08	5.2353E-07	1.8730E-06
2.9455E-08	2.6073E-08	1.0289E-06	-5.1384E-07
6.2684E-08	6.9251E-09	-2.6619E-07	1.2807E-06
5.4695E-08	-2.0951E-08	1.8639E-06	6.0602E-08
-5.4516E-08	-1.6859E-08	-4.2172E-07	-2.6713E-07
-4.9901E-08	-1.4434E-08	6.5264E-07	9.4692E-07
-1.7020E-07	-3.7538E-08	8.5575E-07	1.9798E-07
-6.7105E-08	3.9340E-08	7.1553E-07	-5.7735E-07
-1.7977E-08	1.1766E-07	-1.0454E-06	1.3173E-07
1.0062E-08	8.2113E-08	6.9393E-07	1.6204E-06
5.5583E-08	4.8096E-08	9.2623E-07	-2.1046E-07
8.4325E-08	-4.5088E-08	-1.5651E-07	3.5698E-07
2.8605E-08	-1.0314E-07	2.8907E-07	1.0126E-06
-7.6252E-08	-1.0937E-07	1.2781E-06	7.8939E-07
-1.2583E-07	-7.2350E-08	6.5205E-07	-6.3950E-07
-1.2770E-07	7.1425E-08	-6.3478E-07	7.5656E-07
-1.4698E-07	1.2983E-07	1.1581E-06	1.3580E-06
-7.1148E-08	1.6606E-07	1.0471E-06	-2.2990E-07
2.6247E-08	2.0999E-07	-2.3008E-07	3.0010E-07
4.3244E-09	1.5182E-07	5.5571E-07	1.5092E-06
4.3617E-08	1.0147E-07	1.4368E-06	5.4381E-07
6.3416E-08	2.7345E-08	8.0101E-07	7.8670E-07
2.7017E-10	1.6624E-08	2.2268E-06	2.6575E-07
-5.9173E-08	4.7230E-08	5.5953E-07	-1.0474E-06
-6.7995E-08	3.4588E-08	4.7035E-07	4.1493E-07
-4.9590E-08	8.0201E-08	5.8501E-07	-2.0544E-08
6.0261E-08	8.9078E-08	1.0224E-06	4.2818E-07
1.0120E-07	7.9108E-08	2.8278E-07	-5.5450E-07
9.4754E-08	4.3932E-08	6.1661E-07	1.5325E-06
8.8960E-08	-3.0516E-08	2.3208E-06	-8.1457E-07
3.9934E-08	-3.7781E-08	-6.3035E-07	-9.2048E-07
-1.6335E-08	4.9666E-08	2.7630E-07	1.2743E-06
-2.1489E-08	7.7754E-08	1.8952E-06	2.2689E-07
6.5856E-08	9.6333E-08	5.9790E-07	-1.1689E-06
6.6055E-08	6.8369E-08	9.8758E-08	4.0744E-07
1.1976E-07	3.0909E-08	1.0284E-06	-2.9414E-07
1.5330E-07	-6.5500E-08	4.1732E-07	-9.1704E-08
1.6044E-07	-8.1462E-08	6.8230E-07	-7.4968E-07
7.5663E-08	-1.3023E-07	-3.5974E-07	-1.0604E-07
-5.1907E-08	-9.9579E-08	2.4726E-07	-2.5843E-07
-1.0007E-07	-2.1501E-08	-7.9772E-07	6.5008E-07
-1.1002E-07	-1.6160E-09	1.1222E-06	9.4838E-07
-4.6458E-08	7.7685E-08	3.7440E-07	-2.7626E-08
1.6483E-08	1.3132E-07	1.0517E-06	4.0841E-07
7.7001E-08	9.0899E-08	4.5344E-07	-8.1983E-07
1.2763E-07	5.9936E-09	-3.4766E-07	7.0720E-09
1.1876E-07	-4.1405E-08	-3.7968E-08	3.9415E-07
9.4871E-08	-1.3658E-07	-1.3567E-07	3.9802E-07
7.9179E-09	-1.1761E-07	8.3119E-08	1.3818E-06
-4.7238E-08	-1.0554E-07	1.5101E-06	5.2977E-07
-4.9823E-08	-1.4143E-08	3.1203E-07	-1.8166E-07
-8.8580E-08	-2.7292E-08	3.4535E-07	1.6157E-07
-1.6868E-08	-3.0661E-08	-4.4062E-07	7.6581E-07
-4.3416E-08	1.8813E-08	1.3158E-06	1.1996E-06
-1.1115E-08	1.5030E-08	1.6934E-07	-1.5143E-07
-4.4399E-08	-3.0488E-08	7.8743E-07	1.6784E-06
-3.1514E-08	-2.5836E-08	1.4791E-06	-3.1043E-07
-8.2352E-08	-5.9148E-09	-1.3620E-07	5.7560E-07
-5.4575E-08	6.1595E-08	1.3832E-06	1.2195E-06
-2.7472E-08	7.9971E-08	1.6318E-06	-2.6068E-07
-3.0007E-08	4.8365E-08	2.4055E-07	-2.8015E-07
7.7051E-09	1.0584E-08	8.3017E-07	5.9685E-07
4.9501E-08	1.0409E-08	4.3575E-07	-2.6476E-07
2.7475E-08	-1.6880E-08	3.5897E-07	1.2281E-06
-1.4042E-08	-8.0670E-08	1.7077E-06	2.7761E-07
-1.7089E-08	-1.0534E-08	7.8510E-07	-1.6700E-07
-4.9714E-08	2.0427E-08	6.3455E-07	-1.2862E-07
-5.2945E-08	5.8370E-08	3.2117E-07	5.1942E-07
-7.3895E-08	9.0985E-08	1.0105E-06	1.4032E-07
-2.5923E-08	8.8756E-08	-7.5751E-08	5.9432E-07
1.2434E-08	8.7012E-08	1.7220E-06	1.3793E-06
7.8631E-08	9.6724E-08	1.5509E-06	-5.4614E-07
1.0779E-07	8.0558E-09	6.7946E-07	1.2531E-07
6.8546E-08	-4.4991E-08	1.0533E-06	1.3151E-07
-4.1963E-08	-6.2502E-08	1.2407E-06	1.0103E-07
-2.1852E-08	-5.7149E-08	9.1263E-07	-6.8006E-07
-8.5343E-09	-6.0646E-08	1.0943E-07	2.6806E-07
-1.3322E-09	4.5525E-08	1.2433E-06	6.2485E-07
5.0319E-09	-1.0721E-08	1.4556E-06	-2.0846E-07
-1.3970E-08	1.0658E-08	8.1438E-07	-5.7311E-07
1.9859E-08	-1.0665E-08	7.3830E-07	1.2812E-07
6.5025E-08	-1.0447E-08	1.2462E-06	-4.9458E-07
5.2901E-09	-8.9875E-09	5.5033E-07	-5.1799E-07
2.0388E-08	3.7850E-09	5.1377E-07	-6.5911E-07
2.0580E-08	-3.4118E-08	-9.6513E-08	1.1865E-07
6.6852E-08	6.3650E-09	9.7045E-07	-1.5052E-07
3.5717E-08	-5.4046E-08	-5.4611E-07	-6.6116E-09
5.4173E-08	-3.2448E-08	1.4735E-06	1.6137E-06
6.2258E-08	-7.0578E-08	2.2986E-06	-1.2311E-06
2.4842E-08	-3.8400E-08	-5.7431E-08	-1.6709E-06
-6.2218E-08	-6.0907E-08	-4.5835E-07	2.6529E-08
-9.5390E-09	-1.0257E-07	8.2844E-07	-5.3034E-07
-8.0090E-08	-9.1823E-09	-1.4663E-06	-9.0992E-07
-6.9562E-08	5.7149E-09	-4.3438E-07	1.9704E-06
-2.5494E-08	2.2241E-08	1.0316E-06	3.3291E-07
-3.7180E-08	3.8731E-08	1.4396E-07	5.7185E-07
-3.8067E-08	2.2436E-08	5.9613E-07	6.9602E-07
-2.6639E-08	2.7461E-08	1.1024E-06	9.2792E-07
4.6308E-10	5.1977E-09	1.3645E-06	-1.5817E-07
-3.3751E-08	-3.0388E-08	9.5057E-07	7.0909E-08
-2.3310E-08	-1.2106E-08	9.2055E-07	-8.0390E-07
-3.4406E-08	-3.2534E-08	5.7001E-08	1.5234E-07
-6.8791E-08	2.0473E-08	1.1481E-06	-4.5948E-07
-4.2443E-08	-7.3446E-09	-4.1335E-07	-5.0056E-07
-3.0252E-08	2.5705E-08	3.7472E-07	2.2343E-07
-1.5115E-08	2.8576E-08	-3.5176E-07	-1.2113E-07
8.6058E-09	-6.0767E-09	2.0178E-07	9.2263E-07
-1.4851E-08	7.6021E-08	4.7620E-07	3.4771E-07
-5.7467E-09	5.4631E-09	7.1438E-07	5.5475E-07
-1.3196E-08	8.2054E-09	4.9590E-07	-2.2515E-07
-2.4622E-09	2.7852E-09	1.8811E-08	6.2444E-07
3.6381E-09	-2.1202E-08	9.2537E-07	4.0912E-07
7.7660E-09	9.9448E-10	3.1830E-07	-2.5788E-08
1.2112E-09	-5.7558E-08	3.8594E-07	3.9666E-07
1.3563E-08	4.6852E-08	2.1264E-07	1.2930E-07
1.3172E-08	9.9387E-09	1.2757E-07	8.2142E-07
-2.0881E-08	3.6131E-08	7.2314E-07	4.6775E-07
-5.7498E-08	4.5465E-08	5.1230E-08	5.7616E-07
-2.9288E-08	2.9420E-08	7.0927E-07	1.0803E-06
-7.0140E-09	8.2906E-08	7.0929E-07	7.0402E-07
3.7750E-08	5.8863E-08	1.0882E-06	9.3936E-07
7.2159E-08	2.4661E-08	9.8583E-07	3.0134E-07
6.1838E-08	2.6573E-08	7.8756E-07	9.3952E-07
6.3984E-08	-3.3394E-08	1.7480E-06	8.5455E-07
3.7558E-08	-1.3730E-08	2.0802E-06	-4.1557E-07
3.7346E-08	-1.8607E-08	1.8804E-07	-1.1035E-06
5.4000E-08	-1.0506E-08	2.2330E-07	1.2922E-06
1.1735E-08	-7.3618E-08	2.1564E-06	-1.4961E-07
3.7977E-10	-5.8871E-08	1.6850E-07	-6.7706E-07
-3.4041E-08	-4.5873E-08	8.6026E-07	2.7434E-07
-2.8090E-08	3.8168E-09	1.8823E-07	-5.6783E-07
-1.6679E-08	1.1883E-09	-7.6659E-08	9.5111E-07
-1.3075E-08	-5.6255E-08	1.3119E-06	6.9093E-07
2.4154E-08	-4.3241E-08	6.5066E-07	-2.9040E-07
1.9608E-08	-3.7963E-08	-9.3280E-08	1.0149E-06
-3.0484E-08	-6.5605E-08	1.9498E-06	1.6178E-06
-8.5263E-09	-8.4062E-08	2.3583E-06	-6.6269E-07
-7.4619E-08	-6.4717E-08	5.7938E-07	-6.6895E-07
-5.9282E-08	-2.0011E-08	1.3570E-06	7.5282E-08
-8.2665E-08	-3.2573E-08	7.6211E-07	-1.5534E-06
-4.7855E-09	-2.6250E-08	-9.1832E-07	2.5796E-07
-5.4462E-08	-8.6071E-09	1.1420E-06	9.5337E-07
-2.9331E-08	2.1018E-08	9.4045E-07	-2.7945E-08
1.9967E-08	1.6534E-08	1.3629E-06	-7.0195E-08
-7.6624E-09	1.7260E-08	6.4095E-07	-9.4601E-07
-3.0004E-08	5.2518E-08	8.9533E-09	-5.0296E-07
1.2592E-09	-1.8197E-08	-4.1949E-07	3.9270E-07
-4.3344E-08	-1.0350E-08	1.0864E-06	5.1200E-07
-3.5613E-08	-4.3733E-08	-4.4582E-07	-3.8944E-07
-1.8344E-08	8.0043E-09	6.3883E-07	1.9074E-06
-3.7521E-08	8.7868E-10	1.3319E-06	-2.8295E-07
-2.1390E-08	4.2070E-08	6.0567E-07	1.4073E-06
1.4188E-08	6.4139E-09	2.9349E-06	-3.4410E-07
4.4626E-10	-2.2877E-09	5.6497E-07	-1.3853E-06
6.3072E-09	-1.1631E-08	9.2044E-07	-6.9901E-07
-1.1374E-08	5.1948E-08	-2.6276E-07	-1.4904E-06
