jMRUI Data Textfile

Filename: Export_to_jmrui.txt

PointsInDataset: 2048
DatasetsInFile: 1
SamplingInterval: 0.250000
ZeroOrderPhase: 0E0
BeginTime: 0E0
TransmitterFrequency: 1.2326E8
MagneticField: 2.8936E0
TypeOfNucleus:  
NameOfPatient:  
DateOfExperiment:  
Spectrometer:  
AdditionalInfo: 
SignalNames:  


Signal and FFT
sig(real)	sig(imag)	fft(real)	fft(imag)
Signal 1 out of 1 in file
5.2469E-07	-7.7955E-07	-3.0781E-07	1.3933E-06
5.0025E-07	-1.2105E-06	-4.1365E-08	2.9662E-07
-5.0186E-08	-1.0419E-06	2.5165E-07	4.6011E-07
-3.2873E-07	-8.4880E-07	-7.3027E-07	-5.8454E-07
-5.7950E-07	-3.5332E-07	-5.4506E-07	1.4107E-06
-4.6925E-07	3.5273E-09	3.7100E-07	-2.9737E-07
-3.5972E-07	2.5262E-07	-7.5996E-07	7.6924E-07
-1.1129E-07	1.4999E-07	3.4215E-07	-1.5924E-07
2.3162E-08	2.9717E-08	-1.3746E-06	7.6896E-07
9.2256E-08	-2.0831E-07	8.0282E-07	1.3387E-06
-1.0447E-07	-3.4473E-07	5.0425E-07	1.1202E-07
-1.4236E-07	-2.9191E-07	5.2125E-07	-2.5472E-07
-2.6945E-07	-2.9127E-07	-3.4900E-07	-7.1168E-08
-2.8592E-07	-1.0511E-07	2.3787E-07	-3.5347E-07
-3.0575E-07	7.7486E-08	-1.3049E-06	1.3616E-07
-1.4600E-07	1.0208E-07	5.4622E-07	8.9133E-07
-3.7483E-08	1.0172E-07	-5.7554E-07	-2.5898E-07
4.0330E-09	1.4126E-09	5.9572E-07	1.0195E-06
-3.4868E-08	-7.1924E-08	-4.9051E-08	-1.2728E-06
-1.4173E-07	-1.2648E-07	-1.1376E-06	8.1950E-07
-2.2459E-07	1.5458E-08	3.3850E-07	2.3648E-07
-2.7318E-07	7.8023E-08	-5.8913E-07	8.1100E-08
-2.0601E-07	2.1681E-07	-4.8997E-07	4.9665E-07
-6.9937E-08	2.7543E-07	-2.3266E-07	9.2324E-07
2.4613E-08	2.2106E-07	3.1780E-07	4.6233E-07
1.6414E-07	1.4683E-07	-1.1962E-07	2.1643E-07
1.3701E-07	1.7691E-08	-3.0714E-07	4.7647E-07
9.5099E-08	-8.3248E-08	-4.3571E-08	7.6985E-07
-1.5624E-08	-1.0252E-07	-2.1950E-09	4.7643E-07
-6.7807E-08	4.0085E-09	-2.3939E-07	9.0098E-07
-1.4281E-07	8.7224E-08	4.1864E-07	1.3854E-06
-8.1240E-08	2.3274E-07	1.4516E-06	5.1777E-07
4.3361E-08	2.4205E-07	6.5138E-09	-4.6432E-07
1.6843E-07	1.6514E-07	1.3966E-07	1.4950E-06
2.3289E-07	1.1155E-07	1.8179E-06	2.4316E-07
2.2867E-07	-2.2479E-08	7.1065E-07	-5.6276E-07
1.5869E-07	-7.9317E-08	5.1536E-07	-5.1069E-07
1.1286E-07	-7.9931E-08	-5.3109E-08	-4.6858E-07
4.0063E-08	-9.0619E-08	-1.8798E-07	-5.6735E-08
7.3115E-08	-5.4723E-08	6.3819E-08	3.1003E-07
4.9453E-08	8.1146E-09	2.3552E-07	-3.1740E-08
6.6746E-08	-2.9404E-08	1.9175E-07	2.9724E-07
1.0008E-07	-8.0525E-08	4.9010E-07	-4.6071E-07
1.1024E-07	-1.6521E-07	-6.6666E-07	4.6700E-08
3.5968E-08	-1.8273E-07	5.5372E-07	7.1132E-07
-1.0778E-08	-1.2048E-07	7.2052E-07	-4.1174E-07
-9.2735E-08	-1.1496E-07	-1.7448E-08	-1.0944E-06
-8.1067E-08	-4.8358E-08	-1.7898E-06	-2.6150E-08
-1.0063E-07	3.8508E-08	3.6584E-07	1.9753E-06
-1.2476E-08	5.1471E-08	1.1868E-06	-1.0168E-06
4.1969E-08	1.8333E-08	-1.6089E-06	-3.0673E-07
2.7109E-08	1.0205E-08	-3.4819E-07	1.6283E-06
-2.3184E-08	-2.9583E-08	1.0355E-06	7.7902E-07
-1.3292E-08	-7.9439E-08	3.6786E-07	-6.2665E-07
-7.4467E-08	-2.6908E-08	-8.3040E-07	6.9235E-07
-8.1752E-08	-1.0050E-08	1.0469E-06	8.5966E-07
-6.0678E-08	4.7374E-08	2.2535E-07	-4.2228E-07
-8.6641E-08	8.9624E-08	1.6876E-08	-6.2391E-08
-3.4122E-09	3.8046E-08	-1.2664E-06	3.1491E-07
-3.7051E-09	-6.8227E-09	6.1147E-07	2.3640E-06
4.9554E-08	6.5190E-09	1.4583E-06	-2.3346E-07
-1.6563E-08	-5.2393E-08	3.0905E-07	5.0062E-07
-1.2838E-07	-4.3431E-08	9.5996E-07	-3.9125E-07
-1.4582E-07	-4.6509E-08	-1.3246E-07	1.9234E-07
-9.9905E-08	5.6347E-08	6.2635E-07	-1.7649E-07
-1.0542E-07	7.2111E-08	-5.0511E-07	4.7924E-07
-8.2835E-08	1.2409E-07	1.3976E-06	6.9583E-07
1.7399E-08	1.2920E-07	5.8135E-07	-1.1001E-06
5.2749E-08	9.4912E-08	-6.9310E-07	-5.4659E-07
3.1612E-08	5.8921E-08	-9.9508E-07	9.2039E-07
2.6539E-08	9.6159E-08	8.9711E-07	1.3882E-06
1.2499E-08	2.9594E-08	9.6644E-07	-2.7852E-07
1.0024E-08	5.9117E-08	-2.5380E-07	-1.9814E-07
2.5976E-08	4.6426E-08	-1.3296E-07	1.2740E-06
3.0024E-08	7.3058E-08	1.9374E-06	5.2996E-07
3.0669E-08	3.7507E-08	2.4117E-07	-1.2556E-06
4.4976E-08	-3.2289E-08	-1.5180E-07	6.2254E-07
2.8322E-08	-3.7529E-08	6.9638E-07	-2.6796E-07
9.2485E-09	3.9467E-09	-1.8125E-07	3.0043E-07
-1.0635E-08	7.7115E-09	1.0192E-06	-8.0349E-09
-6.7538E-08	1.9724E-08	-4.4582E-07	-6.6920E-07
-7.0249E-09	2.9909E-08	-9.3307E-08	8.6233E-07
8.2290E-09	9.0468E-08	5.6639E-07	1.2820E-07
9.7333E-08	4.2280E-08	3.6896E-07	6.1916E-08
9.9875E-08	2.6707E-08	-1.3667E-07	-1.7971E-07
7.4765E-08	-5.9538E-08	2.4642E-07	9.5738E-07
3.7800E-08	-9.4671E-08	9.5750E-07	-3.4122E-07
1.5062E-08	-1.2325E-07	1.8824E-07	-1.0639E-08
-3.6214E-08	-6.5222E-08	4.6488E-07	-1.2688E-06
-8.8970E-08	-2.5794E-08	-2.2324E-06	-1.3344E-07
-8.6900E-08	1.6764E-08	-1.7477E-07	2.0489E-06
-1.9518E-08	1.2520E-08	7.7132E-07	6.8813E-07
5.2545E-09	6.0513E-08	2.9035E-07	-1.6118E-08
9.1463E-08	3.2612E-08	-7.1385E-07	1.0750E-06
6.1114E-08	-6.0685E-08	1.6097E-06	1.4208E-06
7.4120E-08	-5.5530E-08	6.1194E-07	-7.3436E-07
7.2929E-08	-9.0494E-08	-4.2981E-08	5.8180E-07
-3.9192E-09	-7.5881E-08	2.7500E-07	3.5253E-07
-2.7630E-08	-4.5220E-08	5.0213E-07	7.0486E-07
-4.8845E-08	-3.3338E-08	1.8378E-07	1.1790E-08
-5.7119E-08	-5.6297E-09	1.5571E-08	1.3790E-06
-6.1135E-08	7.2440E-11	1.6154E-06	7.0103E-07
-2.3324E-08	-3.0594E-08	6.0119E-07	-4.9070E-07
-6.3763E-08	2.3476E-08	-2.2721E-07	5.6618E-07
-2.3316E-08	1.9578E-08	8.5345E-07	1.0590E-06
-4.2317E-08	2.9482E-10	8.5519E-07	4.4135E-07
-7.4042E-08	1.2757E-08	1.3174E-06	6.2895E-07
-5.2502E-08	4.3367E-08	9.7722E-07	-5.1809E-07
-3.6955E-08	3.0602E-08	4.4006E-07	5.4621E-07
2.0117E-08	3.9461E-08	1.5815E-06	-2.5847E-07
-2.6833E-09	4.9231E-08	-2.9134E-08	-7.7971E-07
1.0459E-08	2.0606E-09	1.6811E-07	7.3380E-07
3.2648E-08	-1.1788E-08	1.3505E-06	6.0802E-08
8.0678E-09	1.3526E-08	3.4847E-07	-1.1802E-06
-2.8982E-08	-3.6945E-08	-1.3094E-06	8.8431E-08
-4.7877E-08	2.8836E-08	1.2517E-07	2.0444E-06
-8.8182E-08	7.0830E-08	1.7553E-06	5.4921E-07
-4.0985E-08	6.2131E-08	3.6716E-07	-9.4820E-08
1.1967E-08	9.8428E-08	6.2136E-07	8.7514E-07
3.9153E-08	2.4762E-08	9.7432E-07	6.9835E-07
4.8062E-08	2.4255E-08	1.6628E-06	7.6036E-07
-2.9112E-11	1.5928E-08	1.8396E-06	-3.3812E-07
3.8732E-08	1.5949E-09	1.4566E-06	-7.6543E-07
5.8401E-08	-1.3428E-08	4.1785E-07	-1.3307E-06
2.0373E-08	-3.4310E-08	-9.7064E-08	1.0929E-07
-2.0754E-08	-3.7655E-08	8.5514E-07	-2.8496E-07
-6.8635E-09	1.4423E-08	-3.9077E-08	-1.2093E-07
-1.7966E-08	1.6347E-08	8.6074E-07	1.6987E-07
2.2257E-08	4.5756E-08	8.0537E-08	-5.2476E-07
6.6924E-09	4.4891E-08	7.2280E-08	7.4459E-07
2.8892E-08	-1.4035E-09	9.1338E-07	4.1277E-07
3.2094E-08	2.5951E-08	8.9734E-07	4.0329E-07
3.5757E-08	1.8055E-08	1.3745E-06	-1.8469E-07
2.2496E-08	2.5195E-08	4.6351E-07	-4.6142E-07
5.8521E-08	-2.7420E-08	7.8082E-07	2.2829E-07
2.6158E-08	-5.1312E-08	8.8426E-07	-4.7971E-07
2.1339E-08	-3.6367E-08	3.0178E-07	4.7339E-09
-1.3014E-08	-3.9406E-08	1.1540E-06	9.0888E-08
-1.1951E-08	-6.4630E-08	6.1699E-07	-8.4318E-07
-3.4921E-08	-7.3812E-08	-9.9246E-09	2.9310E-07
-5.9125E-08	-3.5183E-08	1.3581E-06	1.7057E-07
-3.1272E-08	-2.5966E-08	4.1937E-07	-5.2653E-07
-7.0089E-09	3.7970E-08	1.2612E-06	5.0934E-07
-1.5720E-08	2.4298E-08	1.2499E-06	-1.6339E-06
-2.1797E-08	1.9022E-08	-7.1006E-07	-8.6003E-08
1.2002E-08	-9.8913E-09	1.5842E-06	3.6966E-07
-2.2480E-08	-4.4375E-10	8.2405E-07	-1.4008E-06
-2.6550E-08	4.7720E-08	-1.4688E-07	-8.3156E-07
1.3312E-08	-8.2184E-09	-2.8714E-07	2.6555E-07
4.6992E-09	2.5104E-08	1.4462E-06	-4.8202E-08
-2.4289E-09	3.9893E-10	-3.6348E-07	-1.2406E-06
-5.8721E-08	1.2382E-08	5.1934E-07	9.9295E-07
-1.3474E-08	1.6329E-08	1.0442E-06	-1.3446E-06
-3.0941E-09	5.7161E-08	-1.6156E-07	-6.0736E-08
-2.9386E-08	5.5764E-08	4.6333E-07	-1.1825E-06
9.0926E-09	-1.5422E-08	-9.5466E-07	4.6962E-07
-1.8722E-08	-1.8805E-08	1.1552E-06	-1.8969E-07
2.6695E-08	6.0271E-09	-6.1675E-07	3.6557E-08
3.9012E-08	2.2228E-08	1.5371E-06	-1.2165E-07
-5.2154E-09	8.1655E-09	-1.0803E-06	-1.1016E-06
1.8439E-08	-3.1371E-08	3.1628E-07	1.0869E-06
1.4766E-08	-1.1762E-08	-1.6547E-08	-3.7696E-07
4.2450E-09	-5.0453E-08	5.0724E-07	1.0272E-06
-1.3178E-08	3.3302E-09	7.2939E-07	-2.6012E-07
-5.4384E-08	1.9830E-08	8.3801E-07	3.6790E-07
3.4729E-08	3.3640E-08	6.6302E-07	-7.6017E-07
2.6260E-08	3.3379E-08	3.9746E-07	1.5840E-07
-3.1011E-08	9.5038E-08	8.8288E-07	-6.3039E-07
-1.8477E-08	7.2229E-08	2.5168E-07	-9.7708E-07
3.4528E-08	4.0891E-08	-1.0862E-06	-4.0248E-07
6.2086E-08	-8.6053E-09	5.9793E-07	1.1005E-06
1.9414E-08	-6.4485E-09	7.7859E-08	-1.0841E-06
6.7142E-08	-3.5739E-09	-3.4962E-07	1.3897E-06
6.1580E-08	-5.8799E-08	1.3424E-06	-3.1589E-07
3.3613E-08	-4.2057E-08	-3.8468E-08	1.9732E-07
-1.3844E-09	-3.6766E-08	8.0968E-07	-4.5862E-07
-2.7306E-08	-2.2511E-08	-5.1177E-07	3.1289E-07
7.5987E-09	-1.5944E-08	8.8879E-07	4.4878E-07
-4.0815E-08	1.0647E-09	4.8761E-07	4.6707E-07
-2.6150E-08	-3.9516E-08	1.7863E-06	-2.9695E-07
-1.6014E-08	-8.2100E-08	5.2272E-08	-1.1677E-06
1.9586E-08	-5.4391E-08	1.7044E-07	6.3033E-09
-4.3816E-08	-4.8362E-08	5.1821E-07	-4.2472E-07
-3.8355E-08	-5.6009E-09	-1.8141E-07	-9.0511E-07
-5.9124E-09	-4.3534E-08	-8.2142E-07	5.2796E-07
-5.0231E-08	-5.1725E-08	6.0382E-07	3.4638E-07
-2.0480E-08	-2.5814E-08	-3.2643E-07	4.7050E-07
-5.4805E-08	-1.1170E-08	1.3366E-06	7.3793E-07
-6.3370E-08	4.2423E-10	3.4430E-07	-5.7236E-07
-7.5869E-08	1.9057E-08	7.0940E-07	5.2019E-07
-2.7031E-08	4.9621E-09	7.4121E-07	-7.8226E-07
-4.9397E-08	-2.0754E-08	-1.2051E-07	-1.2885E-07
8.7418E-09	2.4655E-08	8.3522E-08	1.0315E-07
1.3205E-08	3.1892E-08	5.6995E-07	8.2095E-07
-2.5512E-08	5.5780E-09	1.8600E-06	-7.3536E-07
-5.2128E-09	6.3495E-09	-8.7286E-07	-1.9637E-06
3.5490E-09	-3.3109E-08	-1.4793E-06	1.1482E-06
8.3641E-09	-3.3114E-08	5.3568E-07	1.1665E-06
-1.1654E-08	-8.1606E-09	9.9315E-07	1.1928E-06
-4.8302E-09	-1.5155E-08	2.2351E-06	-8.1085E-07
3.7992E-09	1.9474E-08	-9.0536E-07	-1.4015E-06
1.6007E-09	-1.9480E-08	-6.3748E-08	1.0776E-06
-3.3218E-08	1.0451E-08	5.9651E-07	-3.7769E-07
7.7406E-10	-5.9603E-09	-7.8920E-07	2.4216E-07
