jMRUI Data Textfile

Filename: Export_to_jmrui.txt

PointsInDataset: 2048
DatasetsInFile: 1
SamplingInterval: 0.250000
ZeroOrderPhase: 0E0
BeginTime: 0E0
TransmitterFrequency: 1.2326E8
MagneticField: 2.8936E0
TypeOfNucleus:  
NameOfPatient:  
DateOfExperiment:  
Spectrometer:  
AdditionalInfo: 
SignalNames:  


Signal and FFT
sig(real)	sig(imag)	fft(real)	fft(imag)
Signal 1 out of 1 in file
6.3648E-08	-3.7050E-07	6.8188E-07	7.7602E-07
-1.0709E-07	-6.0240E-07	-8.6971E-08	-3.0616E-07
-2.4580E-07	-3.7488E-07	6.4731E-07	6.0834E-07
-3.0063E-07	-2.2890E-07	-4.0074E-07	-1.1848E-06
-2.8639E-07	-3.5785E-08	-8.2500E-07	1.4378E-06
-1.0483E-07	1.7953E-07	4.7336E-07	3.0188E-07
9.1709E-09	2.2770E-07	2.6911E-07	1.3796E-06
3.2841E-08	4.4438E-08	1.3598E-06	-4.0083E-07
8.1319E-08	-6.2538E-08	-2.4592E-07	4.6406E-07
-9.3885E-09	-1.2218E-07	1.4117E-06	8.4583E-09
-7.1575E-08	-1.7588E-07	-1.2551E-08	-6.0197E-07
-2.3305E-07	-1.1554E-07	1.7228E-07	-5.1227E-08
-2.2004E-07	-2.1055E-08	-9.8612E-08	-8.2542E-08
-1.8839E-07	4.2803E-08	-3.8549E-07	3.2858E-07
-3.6383E-08	1.4650E-07	7.0126E-07	1.3595E-06
2.9396E-08	1.1663E-07	1.4448E-06	-7.9654E-07
3.0269E-08	8.1671E-08	-4.9141E-07	-3.7416E-07
3.2926E-08	-1.3152E-08	9.4264E-09	1.4860E-07
-3.1233E-09	-5.1372E-09	-6.3240E-08	7.8078E-07
-9.3443E-08	1.0062E-08	7.2788E-07	3.8514E-07
-9.9124E-08	6.9144E-08	8.5239E-07	9.3099E-07
-9.4493E-08	1.4824E-07	1.9400E-06	-1.1324E-06
2.6027E-09	1.9859E-07	-1.1065E-06	-8.7421E-07
5.1720E-08	1.7388E-07	2.6686E-07	9.5524E-07
1.4799E-07	1.1761E-07	6.1113E-07	3.9430E-07
1.7220E-07	1.8562E-08	1.2938E-06	1.4102E-07
1.0851E-07	-6.9576E-08	9.7803E-07	-4.2614E-07
-1.7543E-08	-4.8798E-08	8.0001E-07	-1.2566E-06
-7.3716E-08	-2.0033E-08	-9.9050E-07	2.5632E-08
-4.4345E-08	2.7647E-08	1.8744E-06	7.7847E-07
-5.4832E-08	1.4941E-07	7.0202E-07	-1.7821E-06
3.9881E-08	1.4415E-07	2.6906E-07	-2.4421E-07
1.3449E-07	1.7393E-07	5.5039E-07	-1.4497E-06
1.7101E-07	1.3065E-07	-6.7599E-07	-8.9345E-07
2.0015E-07	3.4319E-08	-5.7362E-07	-1.2779E-07
1.5915E-07	-5.5376E-08	4.5405E-07	4.2647E-07
8.8131E-08	-7.8331E-08	9.4973E-07	-1.3681E-06
7.9941E-08	-8.8776E-08	-1.2740E-06	-1.3778E-06
-4.0980E-08	-9.1423E-08	-8.5511E-07	4.7040E-07
1.5493E-08	-8.8305E-08	-1.1114E-07	-1.8067E-07
2.9447E-08	1.9450E-09	-5.9950E-07	2.2188E-07
5.7895E-08	-2.4769E-08	5.1322E-08	1.3464E-07
4.1575E-08	-7.7578E-08	-4.1144E-07	9.7890E-08
1.3350E-08	-6.4299E-08	-2.9887E-07	3.3703E-07
1.9230E-08	-1.1599E-07	-1.6977E-07	1.2735E-06
-5.1347E-08	-8.1648E-08	1.7031E-06	4.1240E-07
-6.6087E-08	-2.5787E-08	2.3920E-08	-7.0954E-07
-6.0810E-08	2.1242E-09	5.9233E-07	6.1743E-07
-2.9933E-08	1.0611E-09	7.4013E-07	-4.1078E-07
1.5699E-08	2.5677E-08	8.7792E-07	-2.6245E-08
-3.3159E-09	-1.6462E-09	9.4662E-07	-1.1683E-06
1.2239E-08	1.7260E-08	1.6958E-08	-1.3181E-06
2.8463E-09	-6.4749E-08	-9.1080E-07	-7.8285E-07
-1.4874E-08	-1.1692E-07	-2.6985E-08	2.9130E-07
-5.2137E-08	-4.2777E-08	-1.7031E-08	-8.2555E-07
-4.0757E-08	1.6737E-08	-3.6688E-07	-2.3948E-08
-8.9195E-08	3.9564E-08	-2.4814E-07	-4.2663E-07
-3.6669E-08	4.6205E-08	-5.0199E-09	5.4221E-07
3.3628E-08	5.7749E-08	7.6529E-07	-9.7080E-07
-1.0684E-08	4.0340E-08	-6.3383E-07	-7.9409E-07
-3.0652E-08	-1.3701E-08	-7.2341E-07	-9.7113E-07
8.1013E-09	-4.2144E-08	-1.7863E-06	7.4684E-07
-3.5692E-08	-2.6267E-08	8.5133E-07	8.2147E-07
-4.4924E-08	-5.5340E-08	-4.0891E-07	-8.8553E-07
-9.4536E-08	1.8787E-08	-8.3814E-07	1.8886E-07
-5.3009E-08	7.8293E-08	-9.5381E-07	7.7455E-07
-5.0207E-08	4.5920E-08	6.4860E-07	1.2003E-06
1.6262E-08	1.2419E-07	1.4611E-07	-4.7361E-07
1.1001E-09	8.0479E-08	-4.6941E-07	7.5134E-07
9.8440E-09	9.9764E-08	4.0424E-07	6.9932E-07
4.5743E-08	9.4523E-08	8.1592E-07	4.5525E-07
8.2182E-08	5.8577E-08	6.0151E-07	-5.5534E-07
8.7358E-08	2.3330E-08	-1.8914E-07	-1.2025E-07
7.7055E-08	4.3964E-08	7.7790E-08	4.4165E-08
7.3239E-08	-2.0258E-08	-7.1065E-08	7.3093E-08
9.4284E-08	-8.5708E-09	-1.3098E-07	4.0757E-07
2.6693E-08	-4.6803E-08	6.1704E-07	5.9963E-07
-1.0623E-08	-5.2925E-08	3.4040E-07	-2.5376E-07
2.5960E-08	-5.5513E-08	3.6876E-07	7.9371E-07
-1.7099E-08	7.8040E-09	1.5190E-06	-6.3281E-07
2.8156E-09	4.3021E-08	-7.0604E-07	-9.1411E-07
2.2120E-08	6.7918E-09	2.4474E-07	1.2367E-06
5.8666E-08	8.0812E-08	2.0165E-06	-7.1826E-07
7.0134E-08	2.4940E-08	-4.7208E-07	-1.9909E-06
9.0907E-08	-5.1736E-08	-8.5128E-07	2.0318E-07
5.0992E-09	-1.0427E-07	-2.9231E-08	-3.2312E-07
2.1273E-08	-9.7506E-08	-4.8303E-07	6.0679E-07
3.6585E-11	-1.0086E-07	1.2787E-06	-6.7362E-08
-2.2150E-08	-4.4826E-08	-3.2403E-07	-1.4009E-06
-4.5928E-10	1.0476E-08	-1.0269E-06	-1.7083E-08
-9.5075E-09	4.0413E-08	-4.6853E-07	7.8198E-07
-1.6281E-08	1.5662E-08	7.6574E-07	6.8806E-07
-1.1581E-08	3.2317E-08	7.9294E-07	-5.0131E-07
-1.1958E-09	-6.9865E-08	3.6756E-08	-8.3361E-07
8.0675E-09	-4.3419E-08	-5.9489E-07	-2.2810E-07
4.0956E-08	-4.0019E-08	1.8968E-07	6.8540E-08
-1.7641E-08	-8.7403E-09	-3.2575E-07	-6.3044E-07
-3.4613E-08	-3.4721E-08	-4.4023E-07	2.3172E-07
-5.3487E-08	6.9216E-09	-2.1860E-07	-2.9877E-07
-3.1404E-08	-9.3164E-09	-9.5304E-07	6.9942E-07
-4.2903E-08	-7.8682E-10	1.1348E-06	1.0191E-06
-5.5473E-08	1.3078E-08	5.3552E-07	-1.5246E-06
-2.6128E-08	2.2288E-08	-1.5847E-06	-6.2417E-08
-2.3393E-08	7.9540E-09	-2.1394E-07	1.0829E-06
-5.5525E-08	2.4739E-08	4.4975E-07	9.3931E-07
-6.8247E-08	1.4934E-08	1.3843E-06	-4.0946E-07
-9.5768E-08	3.7141E-08	-8.7875E-07	-8.4409E-07
7.8501E-09	4.7932E-08	2.2383E-07	9.2368E-07
-1.6567E-08	5.0706E-08	1.3654E-07	-5.9890E-07
-4.4415E-09	8.6044E-08	2.1084E-07	6.4733E-07
-1.8816E-08	3.6547E-08	5.4992E-07	-1.3070E-06
9.6879E-09	-7.8058E-09	-1.4795E-06	7.0225E-08
1.5285E-08	1.1852E-08	2.6137E-07	6.6150E-07
-4.6069E-08	3.6574E-08	-6.5163E-08	1.1495E-07
-3.8997E-08	-1.9948E-08	4.5531E-07	-1.4953E-07
-3.6319E-09	3.1264E-08	-9.5883E-07	-5.1274E-07
-3.4800E-08	5.0835E-08	-5.4749E-07	1.4511E-06
-1.8558E-08	3.3926E-08	1.3909E-06	6.3034E-07
9.0324E-10	2.2140E-08	6.1353E-07	-1.3081E-06
2.5379E-08	2.7307E-08	-1.4537E-06	-5.7101E-07
4.3215E-08	1.0788E-08	-5.2812E-07	1.3667E-06
6.1686E-08	-7.3506E-09	7.3282E-07	1.0905E-07
2.5622E-08	6.6179E-09	-7.3955E-07	-2.8786E-08
3.0126E-08	-2.4755E-08	1.7487E-07	1.1645E-06
-9.3266E-09	-3.3007E-08	5.4982E-07	-5.4857E-08
-7.9803E-09	-2.1533E-08	-1.1141E-07	2.7205E-07
-2.9654E-08	-3.7331E-08	1.7412E-07	3.1413E-07
-3.3649E-08	7.9910E-10	2.8666E-07	3.7093E-07
-9.4566E-09	4.5374E-08	-3.7207E-09	-1.2583E-08
7.7159E-09	4.0761E-08	2.4531E-07	1.2756E-06
3.1054E-08	4.0205E-08	2.0500E-06	-4.1123E-07
-1.3209E-08	-2.3174E-08	-4.1715E-07	-1.7393E-06
5.5828E-08	7.0606E-09	-1.0859E-06	-1.8863E-08
1.0310E-08	-3.5112E-08	-7.9384E-07	5.1033E-07
1.0424E-08	-2.0733E-08	-3.4330E-07	1.1071E-06
-1.5170E-09	-4.7214E-08	5.2713E-07	1.2401E-06
-9.3692E-09	-3.3506E-08	1.2834E-06	1.7712E-07
-2.3070E-08	-2.4827E-08	2.0945E-07	-5.7624E-07
-1.5944E-08	-3.8057E-08	-2.9325E-07	-1.5108E-07
-9.2485E-09	-9.6542E-09	-9.5018E-07	6.7400E-07
-3.1611E-08	9.3082E-09	6.0169E-07	1.9740E-06
-3.5957E-08	-1.3862E-08	1.6278E-06	3.2677E-07
-1.6092E-08	-2.3692E-08	1.0066E-06	1.2108E-07
-1.6462E-08	-7.1613E-09	1.3796E-06	-7.4540E-07
-1.5761E-08	1.0610E-08	-3.5271E-07	-8.2671E-07
-5.4891E-08	-3.0996E-09	6.9685E-07	5.5668E-07
-1.6811E-08	2.1076E-08	8.3069E-07	-1.5435E-06
-2.2370E-08	1.2320E-08	-1.1533E-06	-5.7640E-07
-8.3601E-09	3.2821E-08	-1.0781E-07	1.3083E-07
-1.4349E-08	6.0729E-08	-6.8556E-07	-2.3211E-07
-1.4562E-08	2.7267E-08	-6.0692E-07	7.6221E-07
-9.5437E-09	1.3560E-08	1.3824E-07	8.0082E-07
-2.5562E-08	3.5121E-08	2.4498E-07	4.8532E-07
-1.5005E-08	2.4517E-08	3.9801E-07	5.8653E-07
1.6657E-08	-2.1318E-08	4.1748E-07	2.6042E-07
-7.9978E-10	3.1568E-08	7.3074E-07	6.7147E-07
-4.7067E-09	-2.1244E-08	1.0766E-06	-6.1787E-07
-1.0234E-08	-5.2892E-09	-1.3895E-07	-2.5560E-07
1.3404E-09	5.8621E-09	4.3532E-07	-3.7026E-07
1.9927E-08	1.6056E-09	-6.4359E-07	-2.1320E-07
1.2154E-08	-4.7089E-09	-9.1573E-08	5.2886E-07
7.5957E-09	-2.7099E-08	3.6703E-07	6.3728E-07
-2.9427E-08	-7.5211E-09	6.5341E-07	-7.3970E-07
-1.9254E-08	9.3016E-09	-1.2904E-06	5.5140E-07
-3.6075E-08	3.5351E-08	1.5767E-06	7.8500E-07
-1.8409E-08	4.1111E-09	-7.9454E-07	-1.1920E-06
2.5782E-09	3.7523E-08	-4.3096E-07	1.5036E-06
5.5417E-08	3.4916E-08	1.5650E-07	7.7054E-07
1.0098E-07	2.8782E-08	1.7488E-06	1.5280E-06
5.6076E-08	9.0625E-08	1.3702E-06	-2.0293E-06
2.2287E-08	-2.3237E-08	-1.4846E-06	-1.0497E-07
-2.0825E-08	-5.3199E-09	1.7202E-08	7.1179E-07
6.2293E-08	-4.5927E-08	-2.2127E-07	9.7377E-07
-8.1086E-09	-6.7859E-08	1.1637E-06	1.1537E-06
-8.8106E-09	-1.0197E-07	1.3156E-06	-4.1122E-07
-5.6506E-08	-6.3620E-08	-5.1081E-07	-7.4147E-07
-3.3853E-09	-2.1171E-08	-7.2403E-07	1.6300E-06
-7.6482E-09	-2.8516E-08	1.7011E-06	1.5815E-06
1.7550E-09	-9.1040E-10	1.6837E-06	-2.6419E-08
-1.5550E-08	-9.1393E-09	1.3737E-06	-1.6438E-07
-5.0541E-08	-4.6109E-08	1.2517E-06	-1.0215E-06
-3.3214E-08	2.3463E-08	-4.4530E-08	-8.8910E-07
1.8212E-08	-3.0419E-08	2.4061E-07	-1.7324E-07
5.6687E-09	-1.2292E-08	-7.0793E-08	-4.4045E-07
-4.0036E-09	2.6990E-09	-1.8493E-07	3.3603E-07
-3.2160E-08	-2.4472E-08	3.3202E-07	6.7198E-07
-6.9165E-08	2.1171E-08	1.1352E-06	4.8536E-07
-5.7366E-08	1.6398E-08	1.2835E-06	-2.5106E-07
-5.7494E-08	3.3006E-08	9.7272E-07	-1.2603E-06
-3.0416E-08	2.9160E-08	-8.5954E-07	-5.0062E-07
-2.3020E-08	2.3949E-08	1.2514E-06	5.9469E-07
1.8390E-08	3.2109E-08	1.8184E-07	-1.8995E-06
4.5476E-08	-1.4666E-08	-7.2348E-07	3.1645E-07
-5.2929E-09	2.0176E-08	1.3319E-07	-5.8887E-07
7.0042E-10	-1.4743E-08	-7.3016E-07	6.1067E-07
-9.0041E-09	2.9287E-08	7.0704E-07	1.8575E-07
-3.3558E-08	-3.4844E-08	-1.9577E-07	-3.9496E-08
-2.8900E-08	2.1526E-09	-2.9905E-08	2.5594E-07
-4.4530E-08	-2.0907E-08	5.0840E-08	1.0194E-06
2.5677E-08	7.5182E-09	1.3283E-06	2.8064E-07
1.2481E-08	9.0726E-09	2.4551E-07	-1.2140E-07
-1.4133E-08	-4.5039E-09	9.1582E-07	3.0143E-07
3.7773E-09	3.0787E-08	6.0459E-07	-2.7780E-07
-4.3510E-10	1.7037E-08	9.2636E-07	-2.1175E-07
