jMRUI Data Textfile

Filename: Export_to_jmrui.txt

PointsInDataset: 2048
DatasetsInFile: 1
SamplingInterval: 0.250000
ZeroOrderPhase: 0E0
BeginTime: 0E0
TransmitterFrequency: 1.2326E8
MagneticField: 2.8936E0
TypeOfNucleus:  
NameOfPatient:  
DateOfExperiment:  
Spectrometer:  
AdditionalInfo: 
SignalNames:  


Signal and FFT
sig(real)	sig(imag)	fft(real)	fft(imag)
Signal 1 out of 1 in file
3.6619E-06	5.2333E-07	-2.8697E-06	1.5950E-06
6.3964E-06	-7.4222E-07	-1.4581E-06	1.9786E-07
4.3688E-06	-2.7154E-06	-2.7776E-06	2.2365E-07
2.6179E-06	-3.5567E-06	-2.2260E-06	1.2730E-06
3.4578E-08	-3.6755E-06	-1.0087E-06	1.3135E-06
-1.6445E-06	-2.4983E-06	-6.7607E-07	-3.8176E-07
-2.6017E-06	-1.1062E-06	-2.2884E-06	-2.9458E-07
-1.9746E-06	4.4432E-07	-2.0366E-06	4.2109E-07
-9.5276E-07	1.1815E-06	-2.2967E-06	5.5256E-07
5.2750E-07	1.2476E-06	-2.1454E-06	1.3252E-06
1.2675E-06	6.0280E-07	-1.0249E-06	1.8819E-06
1.6206E-06	-1.4865E-07	4.5064E-08	2.9321E-07
1.2140E-06	-8.0841E-07	-1.6928E-06	-3.5929E-07
6.5822E-07	-1.1001E-06	-1.5272E-06	7.1685E-07
-1.4860E-07	-1.1201E-06	-1.5700E-06	2.4210E-07
-5.2781E-07	-8.2974E-07	-1.7348E-06	9.6763E-07
-7.7256E-07	-5.2819E-07	-1.1609E-06	7.7106E-07
-7.1474E-07	-2.3158E-07	-1.3074E-06	7.1871E-07
-7.2324E-07	-6.8315E-08	-1.1517E-06	4.1843E-07
-6.3023E-07	5.1733E-08	-1.9135E-06	5.0909E-07
-7.2214E-07	2.0163E-07	-1.5109E-06	1.3513E-06
-6.3061E-07	4.3742E-07	-1.0234E-06	8.4647E-07
-6.5857E-07	5.6122E-07	-1.5438E-06	9.2795E-07
-3.7255E-07	6.9894E-07	-8.2530E-07	1.4004E-06
-8.4443E-08	6.3440E-07	-8.2824E-07	1.6355E-07
2.7175E-07	5.0078E-07	-1.9154E-06	1.0721E-06
3.4038E-07	2.0672E-07	-6.1600E-07	1.0583E-06
3.2460E-07	-7.9678E-08	-1.6896E-06	6.6046E-07
3.8880E-08	-1.8746E-07	-8.0315E-07	1.2552E-06
-2.3942E-07	-1.3571E-07	-2.0218E-06	4.9288E-07
-5.1787E-07	9.0452E-08	-1.0966E-06	2.7348E-06
-6.4078E-07	4.2939E-07	5.9922E-08	4.9272E-07
-5.6206E-07	6.9241E-07	-1.6674E-06	1.2498E-06
-2.9329E-07	8.7091E-07	-1.7597E-07	1.4477E-06
-2.3295E-08	8.4448E-07	-9.0486E-07	5.7464E-07
3.1177E-07	7.2724E-07	-1.0006E-06	1.3156E-06
4.0729E-07	4.5724E-07	-5.2300E-07	1.0123E-06
4.3789E-07	3.4097E-07	-1.1227E-06	8.9044E-07
3.6187E-07	2.0881E-07	-7.1313E-07	1.6191E-06
3.6558E-07	2.1028E-07	-2.9375E-07	9.9886E-07
3.4028E-07	1.8666E-07	-3.7958E-07	9.4680E-07
3.9796E-07	6.5515E-08	-4.8406E-07	4.2658E-07
3.6298E-07	-6.6047E-08	-7.4482E-07	5.5520E-07
3.3412E-07	-2.8570E-07	-1.2581E-06	9.5736E-09
1.2795E-07	-3.8488E-07	-2.0267E-06	1.2935E-06
-1.1719E-07	-3.7581E-07	-9.2946E-07	1.4648E-06
-3.7004E-07	-1.9004E-07	-1.3362E-06	1.4323E-06
-3.8830E-07	4.3970E-08	-5.5802E-07	1.8434E-06
-2.9606E-07	2.2841E-07	-4.3258E-07	1.0612E-06
-6.8572E-08	3.6251E-07	-8.4778E-07	1.1232E-06
1.2111E-07	2.9988E-07	-7.6117E-07	1.1912E-06
3.0972E-07	1.4371E-07	-1.0277E-06	1.2401E-06
2.5682E-07	-6.4365E-08	-7.4486E-07	1.6788E-06
1.0436E-07	-2.7883E-07	-5.2775E-07	1.3104E-06
-2.1923E-07	-3.8430E-07	-7.7023E-07	1.4624E-06
-4.5635E-07	-2.4847E-07	-5.3337E-07	1.6725E-06
-6.0958E-07	-3.4762E-08	-2.0873E-07	1.6138E-06
-5.0173E-07	2.0344E-07	-1.0152E-08	1.4427E-06
-3.8890E-07	4.1146E-07	2.0321E-07	8.1394E-07
-6.3197E-08	4.8964E-07	-8.4240E-07	7.8209E-07
1.6230E-07	3.1604E-07	6.8508E-08	1.4833E-06
2.7439E-07	1.2314E-07	-4.4782E-07	-2.4058E-09
1.8991E-07	-1.1503E-08	-1.3308E-06	1.3895E-06
3.5299E-09	-1.5047E-07	-3.4615E-07	1.4076E-06
-1.4794E-07	-1.2105E-07	-2.8536E-07	1.3195E-06
-2.8414E-07	-1.9210E-08	-1.1599E-07	7.8913E-07
-3.0695E-07	1.4263E-07	-4.9505E-07	5.5153E-07
-2.1568E-07	2.2330E-07	-1.5317E-06	6.2552E-07
-1.1017E-07	2.3724E-07	-8.1600E-07	2.4168E-06
-5.5209E-08	1.8925E-07	1.9450E-07	7.1844E-07
-9.5234E-08	1.3610E-07	-1.1834E-06	1.5181E-06
-1.2306E-07	2.6034E-08	3.5565E-07	1.4025E-06
-1.7947E-07	1.0289E-07	-5.1521E-07	8.0710E-07
-2.0073E-07	1.7395E-07	-2.4076E-08	9.6746E-07
-2.1882E-07	2.6209E-07	-6.4014E-07	3.5352E-07
-7.6502E-08	3.4384E-07	-1.0258E-06	7.3731E-07
4.2878E-09	2.9269E-07	-1.1432E-06	1.1639E-06
1.7257E-07	2.0981E-07	-9.1856E-07	1.1611E-06
1.4621E-07	9.5310E-08	-1.2210E-06	1.7488E-06
4.6446E-08	-1.4802E-08	1.0622E-07	1.8301E-06
-1.1750E-07	4.3417E-09	-2.7820E-07	4.5005E-07
-2.0121E-07	9.1716E-08	-1.3416E-06	1.0149E-06
-2.4464E-07	2.1151E-07	-7.4377E-07	1.8332E-06
-1.3798E-07	2.9965E-07	-1.3694E-07	1.0918E-06
3.3631E-08	3.4888E-07	-9.2212E-07	5.9576E-07
1.8875E-07	2.8128E-07	-1.6762E-06	1.2043E-06
2.8003E-07	8.4582E-08	-1.1403E-06	2.2584E-06
2.5384E-07	-1.2845E-07	-4.6293E-07	1.5751E-06
5.8590E-08	-2.3005E-07	-1.1498E-06	1.8064E-06
-5.2032E-08	-2.4447E-07	-4.4289E-07	2.1704E-06
-2.5625E-07	-1.1788E-07	-5.3621E-07	1.7421E-06
-2.7815E-07	3.3980E-08	-5.3713E-07	2.3939E-06
-2.6818E-07	2.0434E-07	7.5602E-07	2.1103E-06
-8.8899E-08	3.1100E-07	7.2928E-08	6.7317E-07
8.8242E-08	3.5292E-07	-5.4174E-07	1.6232E-06
2.3298E-07	2.6153E-07	-5.8841E-08	1.2392E-06
2.6804E-07	6.8434E-08	-3.9754E-07	1.5708E-06
2.2240E-07	-1.0047E-07	3.4590E-08	1.0816E-06
9.0388E-08	-2.1060E-07	-6.9638E-07	1.1744E-06
-5.0039E-08	-2.3755E-07	-6.0728E-07	1.3128E-06
-1.9610E-07	-1.7480E-07	-8.7233E-07	1.8827E-06
-2.1250E-07	-8.8676E-08	-1.2524E-07	2.1795E-06
-2.2547E-07	-3.5598E-08	7.4693E-07	1.9669E-06
-2.2699E-07	9.4330E-09	6.2482E-07	1.6935E-07
-2.0351E-07	2.8660E-08	-8.5828E-07	9.3938E-07
-2.5017E-07	4.9856E-08	-2.1270E-08	5.9319E-07
-2.4730E-07	6.6146E-08	-1.7263E-06	9.0241E-07
-1.9005E-07	1.0508E-07	-2.9913E-07	2.0712E-06
-1.5343E-07	1.6695E-07	-5.0264E-07	6.3661E-07
-1.1278E-07	1.8198E-07	-1.3537E-06	1.4943E-06
3.4881E-08	2.0082E-07	-5.2552E-07	1.8027E-06
9.5386E-08	1.2172E-07	-1.0282E-06	1.1560E-06
1.2211E-07	1.8938E-08	-1.0623E-06	2.5452E-06
5.9530E-08	-6.0447E-08	1.0155E-07	1.6290E-06
-9.7067E-08	-8.5968E-08	-9.2973E-07	1.7871E-06
-1.9788E-07	-8.0903E-08	-2.4560E-07	1.8514E-06
-2.3733E-07	2.3006E-08	-5.7427E-07	2.2326E-06
-2.2151E-07	1.4364E-07	5.6124E-07	1.4767E-06
-1.3617E-07	1.8634E-07	-1.0695E-06	1.4197E-06
-4.7126E-09	2.0382E-07	3.0759E-07	2.1125E-06
8.9921E-08	1.3540E-07	-5.4670E-07	9.0575E-07
1.2538E-07	3.6337E-08	-7.1346E-07	2.0279E-06
9.1412E-08	-3.6907E-08	-4.2898E-08	1.9625E-06
3.9405E-08	-9.5434E-08	-6.0315E-08	9.5493E-07
-9.7883E-08	-1.0053E-07	-1.5411E-06	1.9812E-06
-1.7441E-07	-5.5877E-08	5.8965E-07	2.5410E-06
-2.0557E-07	5.9934E-08	-3.2036E-07	1.0883E-06
-1.1439E-07	1.0874E-07	-5.2560E-08	1.9291E-06
-4.1713E-08	1.1360E-07	-4.7418E-07	1.2569E-06
-1.6264E-08	1.0377E-07	-2.1002E-07	1.9523E-06
-2.3592E-08	9.5255E-08	-3.8125E-07	1.5080E-06
-7.9756E-10	6.3519E-08	1.0773E-07	1.7752E-06
-3.4474E-08	-7.2508E-09	-5.2761E-07	9.9816E-07
-4.7678E-08	1.3757E-08	-6.3183E-07	1.6553E-06
-1.3693E-08	6.8887E-08	-1.1449E-06	1.8552E-06
1.2616E-09	9.4874E-08	1.9932E-07	2.7290E-06
2.7656E-08	6.4697E-08	4.0862E-08	1.1950E-06
1.1791E-07	4.5641E-08	-8.2920E-08	1.7423E-06
1.4950E-07	-4.7343E-08	-6.9392E-07	9.4906E-07
7.7489E-08	-1.1299E-07	-6.9394E-07	2.2455E-06
1.6621E-08	-1.7301E-07	-4.8365E-07	1.4825E-06
-8.7917E-08	-1.6182E-07	-5.3925E-07	2.2324E-06
-2.1964E-07	-1.1417E-07	-6.9274E-07	1.5920E-06
-2.2132E-07	-4.1323E-09	-4.3275E-07	2.8750E-06
-1.7721E-07	4.6420E-08	-3.3438E-09	1.5099E-06
-1.0614E-07	1.1063E-07	-6.5605E-07	2.7621E-06
-5.9505E-08	1.1095E-07	4.6447E-07	1.8577E-06
4.6692E-08	4.2711E-08	-4.5201E-07	2.3941E-06
5.9574E-08	-4.9492E-08	6.4993E-07	2.0156E-06
8.3502E-08	-6.2649E-08	8.1360E-08	2.0404E-06
-2.1837E-08	-1.2757E-07	8.1045E-07	1.1145E-06
-8.2378E-08	-1.0806E-07	-1.2481E-06	1.2683E-06
-1.4402E-07	-5.6337E-09	-6.5815E-08	2.7528E-06
-1.4613E-07	2.8210E-08	2.2292E-07	1.8504E-06
-1.0325E-07	6.3805E-08	3.0234E-07	1.9801E-06
-5.8750E-08	8.6594E-08	2.4614E-07	1.4805E-06
-5.0634E-08	8.2266E-08	-4.3920E-08	1.5715E-06
-5.5666E-09	4.5806E-08	-5.5134E-08	1.6529E-06
5.3476E-08	3.3402E-08	-3.5723E-08	1.6281E-06
4.9264E-08	1.8047E-09	4.6135E-09	1.6556E-06
3.5474E-08	-3.5768E-08	-1.2378E-07	1.2509E-06
-2.6664E-09	-5.8681E-08	-7.5675E-07	1.8725E-06
-3.2838E-08	-4.9943E-08	3.1494E-07	2.1721E-06
-5.4494E-08	-4.5515E-08	3.3963E-08	1.1184E-06
-9.4140E-08	-5.9707E-08	-6.4891E-07	1.6005E-06
-9.0644E-08	-3.8152E-08	-4.9747E-07	1.9645E-06
-1.6279E-07	2.2787E-08	-2.3476E-07	2.3504E-06
-1.1829E-07	6.7880E-08	5.4495E-07	2.0509E-06
-5.5849E-08	8.1202E-08	1.3214E-07	1.2270E-06
-3.0929E-08	1.2694E-07	-3.1459E-07	1.8162E-06
2.9468E-09	1.0596E-07	4.3215E-07	1.6082E-06
3.4050E-08	1.0399E-07	-3.7727E-07	9.0104E-07
5.9920E-08	2.8127E-08	-6.7964E-07	1.9557E-06
1.2314E-07	-4.8783E-09	1.3567E-07	1.5784E-06
4.6813E-08	-8.8358E-09	-7.1289E-07	1.3868E-06
9.0101E-09	-3.9853E-08	-2.8059E-07	2.0453E-06
5.3239E-09	7.5743E-09	-2.3724E-07	1.4598E-06
-2.4375E-08	-2.3560E-10	-4.5086E-07	1.6980E-06
-9.1754E-09	6.2816E-09	-5.3010E-07	1.5085E-06
6.5276E-09	2.2435E-08	-7.3409E-07	1.8910E-06
4.5262E-08	2.6753E-08	-6.3054E-07	1.9337E-06
3.4113E-08	1.5401E-08	-4.3045E-07	2.3816E-06
-4.2799E-09	5.3009E-09	1.4288E-07	1.6791E-06
1.1121E-08	-9.0589E-08	-8.4488E-07	1.5568E-06
-1.5774E-08	-6.9892E-08	-4.2768E-07	2.0361E-06
1.2470E-08	-8.8460E-08	-1.2005E-06	1.5930E-06
-4.2863E-08	-8.8956E-08	-8.7028E-07	3.4686E-06
-4.4399E-08	-4.6717E-08	8.2754E-07	1.9624E-06
-5.0374E-08	-3.5229E-08	-1.1764E-06	1.7840E-06
-2.6255E-08	3.5624E-09	-1.0674E-08	2.9347E-06
-9.1631E-08	-2.2909E-08	-1.4596E-07	2.0611E-06
-4.3107E-08	1.3258E-08	2.6164E-07	2.3483E-06
-9.4136E-08	-8.2906E-09	-3.0919E-07	1.6523E-06
-5.7064E-08	2.2134E-09	4.2237E-08	2.2800E-06
-4.8440E-08	2.6810E-08	-6.5398E-07	1.4534E-06
-7.1678E-08	2.5779E-08	-2.7669E-07	2.9790E-06
-3.3266E-08	3.2611E-08	1.4446E-07	1.3362E-06
-1.0569E-08	4.2875E-08	-9.7962E-07	2.4863E-06
-2.3375E-08	6.0589E-08	5.4783E-08	2.1213E-06
3.4246E-09	-9.5811E-09	-7.9963E-07	2.3671E-06
-1.5207E-08	-1.9185E-08	-2.2151E-07	2.7950E-06
-2.6786E-08	-2.8451E-08	4.1465E-07	3.0011E-06
-2.6984E-08	-4.4815E-09	8.3545E-07	1.5856E-06
-1.4139E-08	4.4278E-09	-3.3130E-07	1.8340E-06
