jMRUI Data Textfile

Filename: Export_to_jmrui.txt

PointsInDataset: 2048
DatasetsInFile: 1
SamplingInterval: 0.250000
ZeroOrderPhase: 0E0
BeginTime: 0E0
TransmitterFrequency: 1.2326E8
MagneticField: 2.8936E0
TypeOfNucleus:  
NameOfPatient:  
DateOfExperiment:  
Spectrometer:  
AdditionalInfo: 
SignalNames:  


Signal and FFT
sig(real)	sig(imag)	fft(real)	fft(imag)
Signal 1 out of 1 in file
3.1393E-06	5.0251E-07	-1.3398E-06	1.3165E-06
4.9549E-06	-5.3298E-07	-1.7664E-06	5.1377E-07
3.2750E-06	-2.0377E-06	-1.3278E-06	1.3936E-06
1.9921E-06	-2.8218E-06	-8.1513E-07	9.8815E-07
-1.1701E-07	-2.8781E-06	-6.2157E-07	4.2083E-07
-1.3409E-06	-2.0154E-06	-1.6390E-06	6.4535E-07
-2.0714E-06	-7.9906E-07	-3.4702E-07	1.2119E-06
-1.5716E-06	3.3492E-07	-1.0840E-06	-1.0017E-09
-7.9025E-07	9.4870E-07	-9.4246E-07	1.1141E-06
3.1612E-07	9.7867E-07	-9.6497E-07	2.8953E-07
8.8220E-07	5.1557E-07	-8.8634E-07	1.1646E-06
1.1954E-06	-1.0181E-07	-7.6140E-07	1.8324E-07
9.1316E-07	-6.4710E-07	-1.2153E-06	1.0660E-06
4.8773E-07	-8.6006E-07	-7.4822E-07	6.4914E-07
-1.9049E-07	-8.4406E-07	-6.5739E-07	1.1082E-06
-4.3788E-07	-6.2108E-07	-7.5804E-07	-2.3808E-07
-5.9410E-07	-4.1340E-07	-1.9778E-06	1.5179E-06
-5.4833E-07	-1.7483E-07	1.2888E-07	9.1002E-07
-5.7775E-07	-7.3493E-08	-1.9919E-06	5.5758E-07
-5.4759E-07	5.2818E-08	-3.6642E-07	2.3686E-06
-6.0172E-07	1.4338E-07	1.3543E-08	3.2525E-07
-5.6023E-07	2.6647E-07	-1.2121E-06	1.0829E-06
-5.7623E-07	4.2529E-07	-9.3233E-10	1.4127E-06
-3.5879E-07	5.8477E-07	-2.9994E-07	1.6379E-07
-1.2501E-07	5.7966E-07	-1.2287E-06	8.8171E-07
1.8768E-07	4.0316E-07	-5.7251E-07	1.2816E-06
2.9512E-07	1.4078E-07	-3.9557E-07	1.1636E-06
2.6516E-07	-5.3829E-08	-1.6375E-07	8.1000E-07
6.8304E-08	-1.7937E-07	-4.4355E-07	7.2866E-07
-1.6922E-07	-1.3584E-07	-5.0585E-07	4.0236E-07
-4.1083E-07	7.4873E-08	-1.2335E-06	1.0451E-06
-4.9072E-07	3.3577E-07	1.9383E-08	1.3962E-06
-4.5189E-07	5.9392E-07	-1.5303E-07	1.5660E-07
-2.5523E-07	7.2298E-07	-1.0684E-06	1.6721E-07
3.7137E-08	6.7451E-07	-1.6083E-06	1.0750E-06
2.5897E-07	5.4000E-07	-4.2096E-07	1.7411E-06
3.7534E-07	3.5053E-07	-6.4538E-08	2.8349E-07
3.9488E-07	2.0406E-07	-1.8180E-06	1.6336E-07
3.0011E-07	1.8104E-07	-1.7989E-06	2.0911E-06
2.8135E-07	1.2584E-07	-3.7511E-07	1.8734E-06
2.3176E-07	1.5022E-07	-4.8630E-07	1.4828E-06
3.1506E-07	4.1618E-08	-5.0544E-07	1.0365E-06
3.1684E-07	-5.3985E-08	-1.1073E-06	1.7646E-06
2.5507E-07	-2.1916E-07	2.1019E-08	1.5611E-06
1.0610E-07	-3.4603E-07	-8.3437E-07	1.3932E-06
-4.7637E-08	-3.0062E-07	3.7410E-08	1.5342E-06
-2.4805E-07	-1.7467E-07	-8.8482E-07	1.1337E-06
-2.5897E-07	9.8240E-09	-3.8805E-07	1.5724E-06
-1.7884E-07	1.3132E-07	-1.4074E-06	1.9693E-06
-6.2985E-08	1.7545E-07	1.0169E-06	2.9383E-06
7.8633E-08	1.9158E-07	1.7652E-07	3.9064E-07
2.2430E-07	4.1407E-08	4.4919E-08	2.0225E-06
1.4932E-07	-1.0630E-07	-1.7051E-08	2.2370E-07
3.0114E-08	-2.2594E-07	-1.1555E-06	2.1993E-06
-1.8542E-07	-2.5910E-07	5.4683E-07	1.8826E-06
-3.1897E-07	-2.3457E-07	3.5137E-07	1.5653E-06
-3.8536E-07	-8.3369E-08	1.9014E-07	8.5920E-07
-3.3821E-07	1.8754E-07	-2.2528E-07	1.8123E-06
-2.2052E-07	3.1822E-07	6.0502E-07	1.3147E-06
1.5705E-08	3.0871E-07	4.8001E-07	1.3805E-06
1.4917E-07	1.4943E-07	5.1021E-07	3.0514E-07
1.9841E-07	1.6405E-08	-3.7959E-07	1.1300E-06
8.6860E-08	-8.9802E-08	2.5279E-07	3.6123E-07
-8.6242E-10	-1.2394E-07	-1.3386E-06	1.1460E-06
-1.5254E-07	-8.7438E-08	3.3208E-08	1.8343E-06
-2.5900E-07	4.5288E-08	-6.5535E-08	1.5536E-06
-2.5126E-07	1.3927E-07	6.3496E-07	9.8621E-07
-1.6838E-07	2.3068E-07	-7.9053E-07	8.6847E-07
-1.0510E-07	1.5705E-07	1.5376E-07	1.8254E-06
-3.3304E-08	9.3399E-08	1.1195E-08	9.3199E-07
-2.7762E-08	4.7281E-08	-7.5013E-08	1.2315E-06
-5.5971E-08	6.6010E-08	-6.1337E-07	1.0250E-06
-1.4573E-07	5.8498E-08	-5.6169E-07	2.3308E-06
-1.4191E-07	9.4389E-08	1.0507E-06	2.2592E-06
-1.4203E-07	2.1600E-07	1.1655E-06	5.3520E-07
-5.3570E-08	2.3161E-07	-2.7785E-07	6.5492E-07
6.4509E-08	1.9183E-07	3.4972E-07	1.0290E-06
7.6926E-08	9.8553E-08	-6.4563E-07	4.3238E-07
9.2399E-08	5.2929E-08	-4.6600E-07	2.0132E-06
2.7176E-08	1.3911E-08	5.6648E-07	9.3460E-07
-8.0980E-08	4.9913E-08	-9.9382E-07	8.9859E-07
-1.3994E-07	8.7168E-08	-3.5724E-07	2.4912E-06
-1.4183E-07	2.1914E-07	9.3704E-07	1.6881E-06
-8.8457E-08	2.8304E-07	2.5483E-07	9.3841E-07
6.1957E-08	2.6364E-07	1.0074E-07	1.4490E-06
2.1329E-07	1.8297E-07	4.7997E-07	1.2115E-06
2.6252E-07	9.7250E-08	1.6180E-07	9.7420E-07
2.5833E-07	-8.7290E-08	9.4933E-08	1.1723E-06
1.3500E-07	-2.1071E-07	2.8416E-07	1.1534E-06
-1.6983E-08	-1.8832E-07	2.1252E-07	5.5529E-07
-1.8005E-07	-8.1589E-08	-9.9406E-07	1.0211E-06
-1.8934E-07	5.8601E-08	2.6991E-07	2.2253E-06
-1.6115E-07	1.8840E-07	4.8927E-07	5.3564E-07
-4.8294E-08	2.3362E-07	-5.2825E-07	1.3933E-06
7.1190E-08	2.4771E-07	3.9392E-07	1.2132E-06
1.6199E-07	1.7408E-07	-2.7996E-07	9.1343E-07
2.1556E-07	1.0966E-07	-5.2312E-07	1.3359E-06
1.7494E-07	-3.8810E-08	4.8238E-08	2.1979E-06
1.0536E-07	-1.3844E-07	9.6576E-07	7.7889E-07
5.1237E-09	-2.4055E-07	-7.7440E-07	8.4864E-07
-1.2334E-07	-1.8494E-07	1.5428E-07	1.5503E-06
-1.4231E-07	-1.3010E-07	-6.4119E-07	9.0884E-07
-1.8927E-07	-5.7643E-08	-3.9558E-07	2.3901E-06
-1.8904E-07	2.5783E-08	9.6716E-07	1.6363E-06
-1.9262E-07	2.0843E-08	1.1801E-07	4.8590E-07
-1.7071E-07	9.1090E-08	-8.8390E-07	1.3481E-06
-1.5196E-07	7.4385E-08	-2.5809E-07	2.1166E-06
-1.3748E-07	1.0140E-07	4.0236E-07	2.0049E-06
-9.7457E-08	1.1748E-07	4.5929E-07	1.2585E-06
-3.1466E-08	1.5269E-07	-7.7544E-08	1.6099E-06
2.0240E-08	1.5464E-07	5.0046E-07	1.5110E-06
8.5121E-08	1.1027E-07	7.9313E-08	1.2903E-06
7.7056E-08	8.1225E-09	-3.7090E-08	1.3515E-06
5.4253E-08	-9.8741E-08	-2.2504E-07	2.1829E-06
-7.4662E-08	-1.1553E-07	1.1587E-06	1.9812E-06
-1.4653E-07	-6.9177E-08	8.2014E-07	1.2248E-06
-2.2680E-07	1.4544E-08	1.1648E-06	6.4343E-07
-1.4780E-07	5.4319E-08	-4.8175E-07	-5.4619E-08
-1.1112E-07	1.3825E-07	-1.0756E-06	1.5519E-06
3.0144E-08	1.6066E-07	-8.9419E-08	2.5687E-06
8.3254E-08	9.6797E-08	1.5101E-06	1.4485E-06
8.4283E-08	3.0609E-08	-2.7095E-07	2.2875E-07
6.9342E-08	-7.1311E-09	-3.6011E-07	1.8866E-06
7.5563E-08	-3.9016E-08	3.7493E-07	1.2588E-06
-4.0975E-08	-6.0994E-08	-5.0532E-07	1.0550E-06
-7.2927E-08	-3.0293E-08	-7.1603E-07	2.5092E-06
-7.4948E-08	4.7610E-08	1.2036E-06	2.2576E-06
-7.9351E-08	5.8083E-08	3.2162E-08	1.2032E-06
-4.7194E-08	8.0008E-08	6.4949E-07	2.5437E-06
3.3443E-08	4.4064E-08	1.3289E-06	1.5167E-06
-9.9061E-09	4.2752E-08	1.5036E-06	8.7281E-07
6.1574E-10	1.1335E-09	-1.2647E-07	7.8471E-08
-2.1819E-08	3.4967E-08	3.8060E-07	2.0548E-06
-1.8692E-08	-1.7070E-09	9.8742E-07	2.1121E-08
-1.1754E-08	2.5611E-08	-6.6392E-07	1.0727E-06
2.5260E-08	1.0023E-07	4.4627E-07	1.0008E-06
6.2589E-08	4.4623E-08	-5.3362E-07	1.1466E-06
6.8021E-08	2.3935E-08	4.9851E-07	1.6233E-06
1.1496E-07	-9.5538E-10	3.5910E-07	7.3816E-07
7.7517E-08	-8.7957E-08	-5.3481E-09	6.5713E-07
1.3458E-08	-1.2398E-07	-6.8041E-07	6.8148E-07
-7.2100E-08	-1.4500E-07	-8.4230E-07	1.4976E-06
-1.2420E-07	-7.3967E-08	-5.1784E-07	1.7138E-06
-1.7216E-07	-7.9769E-10	-4.4559E-07	2.1308E-06
-1.2696E-07	7.3455E-08	4.4961E-07	2.2620E-06
-1.1124E-07	1.2192E-07	7.2888E-07	1.4134E-06
-3.3656E-08	1.0647E-07	1.7179E-07	9.3269E-07
5.4810E-09	3.1904E-08	-4.8557E-07	1.4561E-06
3.4059E-08	-2.7864E-08	2.3288E-07	1.9324E-06
4.5377E-08	-7.0527E-08	2.6992E-07	1.2811E-06
1.3951E-08	-8.4063E-08	-3.3825E-08	1.3497E-06
-2.0032E-08	-5.7939E-08	-3.0538E-07	1.5672E-06
-9.2409E-08	-3.1452E-08	1.2781E-07	2.0594E-06
-9.6889E-08	-8.5549E-10	5.9028E-07	1.7448E-06
-9.7320E-08	3.3776E-08	7.9626E-07	1.0105E-06
-6.2317E-08	6.8026E-08	-4.2177E-07	6.8977E-07
-6.6224E-08	4.6523E-08	-2.6538E-07	1.5886E-06
-5.7601E-10	8.2676E-08	-6.3157E-07	1.3739E-06
2.4750E-08	2.3929E-08	-1.8011E-08	2.5145E-06
6.1512E-08	-3.1417E-08	5.4950E-07	1.3080E-06
3.3996E-08	-4.5164E-08	-1.1294E-07	1.4424E-06
2.0247E-08	-5.8522E-08	-3.7865E-07	1.3759E-06
-1.2038E-08	-3.9238E-08	-1.5938E-07	2.1449E-06
-5.7118E-08	-4.6234E-08	-3.3821E-07	1.3187E-06
-6.8524E-08	-7.2476E-08	-7.5322E-07	3.1158E-06
-5.0036E-08	-3.0657E-08	1.2261E-06	2.6737E-06
-7.4527E-08	1.4321E-08	1.1613E-06	1.9900E-06
-7.3887E-08	5.8964E-08	1.2004E-06	6.6727E-07
-7.0523E-08	6.7234E-08	-4.1456E-07	1.2485E-06
5.5754E-10	1.1106E-07	5.3633E-07	1.3239E-06
3.9988E-09	7.3988E-08	-9.6457E-07	1.4052E-06
5.9284E-08	4.0710E-08	4.5446E-07	2.8862E-06
6.3024E-08	3.1187E-08	9.0716E-07	1.2389E-06
4.1656E-08	-1.9327E-09	-1.4505E-07	1.4797E-06
6.3565E-08	4.4703E-08	2.7702E-07	2.0870E-06
5.6911E-08	-1.3671E-08	6.1869E-07	1.6012E-06
2.7680E-08	-6.5722E-09	3.7758E-07	1.6629E-06
2.7438E-08	-1.2813E-08	5.3557E-07	1.2576E-06
7.4411E-09	-2.9132E-08	-9.4521E-08	1.7150E-06
1.8961E-08	-2.0761E-08	9.2890E-07	1.5598E-06
4.7904E-08	-5.7990E-09	-1.3355E-07	9.9888E-07
5.2442E-08	9.2297E-09	4.2212E-07	1.8642E-06
4.1227E-08	-3.5200E-08	2.5503E-07	7.6792E-07
4.1855E-08	-2.0724E-08	-4.2269E-07	1.5188E-06
1.9774E-08	-6.6100E-08	5.2017E-08	1.4908E-06
4.8870E-08	-6.2490E-08	-3.9934E-07	1.4530E-06
-2.3856E-08	-7.6905E-08	-2.9826E-07	1.9618E-06
-5.0886E-08	-1.0492E-07	-1.9283E-07	1.8386E-06
-7.3487E-08	-4.6002E-08	-2.2485E-07	2.5496E-06
-7.3854E-08	-2.1913E-08	1.0050E-06	2.1645E-06
-8.0337E-08	7.0600E-09	2.6674E-07	1.4258E-06
-6.4676E-08	1.1862E-09	5.3617E-07	1.7355E-06
-4.4440E-08	3.1675E-09	-1.1778E-07	1.2105E-06
-7.3941E-08	1.8367E-08	1.2130E-07	2.2005E-06
-4.6206E-08	-1.9167E-08	4.2978E-07	1.3184E-06
-2.4216E-08	-1.9538E-08	-8.5256E-08	1.6774E-06
-2.8178E-08	4.1701E-08	-1.0138E-08	1.3309E-06
1.3985E-08	3.0339E-08	-7.6450E-07	2.0952E-06
1.2701E-08	3.2088E-08	5.6655E-07	2.7235E-06
2.6209E-09	3.9526E-09	9.8449E-07	1.1000E-06
-1.3640E-08	4.0874E-08	-9.8181E-07	9.7252E-07
8.1340E-09	-1.9789E-08	-5.1894E-07	2.9359E-06
-7.6264E-09	2.3019E-08	5.4442E-07	1.9501E-06
-2.1330E-08	2.5645E-08	-2.7593E-07	2.1448E-06
-1.2989E-08	1.7792E-08	3.9214E-07	2.2965E-06
