jMRUI Data Textfile

Filename: Export_to_jmrui.txt

PointsInDataset: 2048
DatasetsInFile: 1
SamplingInterval: 0.250000
ZeroOrderPhase: 0E0
BeginTime: 0E0
TransmitterFrequency: 1.2326E8
MagneticField: 2.8936E0
TypeOfNucleus:  
NameOfPatient:  
DateOfExperiment:  
Spectrometer:  
AdditionalInfo: 
SignalNames:  


Signal and FFT
sig(real)	sig(imag)	fft(real)	fft(imag)
Signal 1 out of 1 in file
2.2500E-06	5.7529E-07	-1.5674E-06	5.9587E-07
2.7722E-06	-8.1303E-08	-3.9858E-07	7.2067E-07
1.8362E-06	-9.6133E-07	-6.8779E-07	1.4810E-07
1.2003E-06	-1.4813E-06	-8.0682E-07	2.2402E-07
-1.9772E-08	-1.5659E-06	-1.1298E-06	7.1534E-07
-6.4244E-07	-1.1014E-06	-1.9845E-07	7.2007E-07
-1.0967E-06	-4.8239E-07	-9.7479E-07	1.9160E-07
-7.8336E-07	1.6891E-07	-6.3294E-07	1.1551E-06
-3.9242E-07	4.3460E-07	-3.1344E-07	4.2882E-07
2.2329E-07	4.0719E-07	-7.2396E-07	8.2229E-07
4.5697E-07	1.9026E-07	-1.7368E-07	5.8677E-07
6.3819E-07	-1.6578E-07	-1.0618E-06	4.8929E-07
3.3861E-07	-4.1605E-07	-3.4823E-07	1.5549E-06
1.3497E-07	-5.1671E-07	-6.9930E-08	3.0863E-07
-2.0002E-07	-4.4507E-07	-8.3238E-07	1.2121E-06
-3.1317E-07	-2.4544E-07	2.3014E-07	8.0477E-07
-3.3578E-07	-8.5055E-08	-5.8206E-07	7.6970E-07
-2.4939E-07	5.4031E-09	-9.2431E-08	6.9521E-07
-1.9811E-07	-2.7228E-09	-8.9648E-07	1.2018E-06
-1.8244E-07	-8.8738E-09	7.7501E-07	1.3548E-06
-3.0223E-07	-6.8525E-08	-1.2694E-08	-1.1580E-07
-3.4750E-07	3.2727E-09	-6.5635E-07	2.4341E-07
-4.0558E-07	1.1083E-07	-1.5267E-06	9.4257E-07
-3.0929E-07	2.2326E-07	-3.2424E-07	2.0242E-06
-1.9127E-07	2.8669E-07	-7.3241E-08	1.2957E-06
-6.2588E-11	2.6802E-07	2.7947E-07	1.3480E-06
1.0165E-07	1.6430E-07	-1.5056E-07	9.1056E-07
1.1852E-07	8.9585E-08	2.3340E-07	1.2728E-06
3.8724E-08	-7.0901E-08	-2.1645E-07	8.6642E-07
-7.6987E-08	-5.6121E-09	4.4636E-07	1.3225E-06
-2.6300E-07	4.7428E-08	-4.4961E-07	1.8405E-07
-2.9496E-07	1.7009E-07	-7.0379E-07	2.1749E-06
-2.1463E-07	2.6880E-07	8.6858E-07	1.5979E-06
-7.0991E-08	3.8437E-07	6.7844E-07	1.0068E-06
3.2026E-08	3.9655E-07	2.7319E-07	4.4292E-07
1.6786E-07	3.3761E-07	-2.3067E-07	1.1602E-06
1.7413E-07	2.2266E-07	3.4624E-07	1.1282E-06
2.3532E-07	1.4714E-07	1.4935E-07	9.8494E-07
1.3566E-07	4.7392E-08	8.2864E-08	1.1839E-06
1.1813E-07	9.3493E-08	6.7348E-07	1.2672E-06
1.5806E-07	6.9325E-08	2.7894E-07	3.0917E-07
1.6541E-07	8.8788E-08	-3.0331E-07	1.2710E-06
1.8230E-07	2.5120E-08	4.9146E-07	1.0371E-06
2.1565E-07	-7.2313E-08	-1.5313E-07	9.2244E-07
1.2539E-07	-1.7538E-07	-2.7261E-08	1.5531E-06
7.0930E-08	-1.5819E-07	8.0833E-07	1.7749E-06
-5.8205E-08	-1.0423E-07	1.2016E-06	4.7689E-07
-1.0671E-07	-5.4398E-08	-1.4175E-07	3.8919E-07
-9.3356E-08	2.7476E-08	-7.2459E-08	1.1151E-06
7.8954E-09	5.5083E-08	-2.0107E-08	1.4824E-06
3.0866E-08	-3.7433E-09	8.9707E-07	1.5855E-06
8.6948E-08	-2.8792E-08	7.9719E-07	6.5355E-07
9.0737E-08	-9.2463E-08	2.4751E-07	8.6478E-07
2.7364E-08	-1.2214E-07	4.5054E-07	1.2638E-06
-8.4809E-08	-8.2641E-08	1.0581E-06	9.0918E-07
-1.8103E-07	-5.2628E-08	4.3788E-07	2.6105E-07
-1.6962E-07	1.1795E-08	1.9772E-07	8.5274E-07
-1.3971E-07	4.6661E-08	4.3076E-07	7.5147E-07
-8.3680E-08	7.9555E-08	5.9330E-07	5.5344E-07
-1.4871E-10	9.2189E-08	-3.2409E-07	-3.6635E-08
8.6514E-08	3.9789E-08	-5.7421E-07	1.6031E-06
9.6204E-08	-4.5230E-08	6.1016E-07	8.2571E-07
2.8310E-08	-7.4298E-08	-6.7094E-07	1.1219E-06
-4.6165E-08	-1.2106E-07	5.9186E-07	1.8142E-06
-1.9927E-07	-7.7244E-08	6.5914E-07	9.0481E-07
-1.9004E-07	1.2718E-08	3.2302E-07	4.0842E-07
-2.2842E-07	4.8734E-08	-9.7559E-07	1.2027E-06
-1.5677E-07	1.5348E-07	6.8870E-07	2.1871E-06
-6.7005E-08	1.6245E-07	3.0518E-07	7.7134E-07
-1.6758E-08	1.0141E-07	2.6692E-07	1.9102E-06
-1.1951E-09	5.1111E-08	6.3040E-07	9.8010E-07
8.2481E-09	9.4412E-09	-6.9530E-08	1.9228E-06
-2.2520E-08	2.7435E-08	1.3002E-06	2.0805E-06
-2.1168E-08	8.0400E-08	1.5501E-06	1.3260E-06
-5.1834E-08	8.4646E-08	1.6796E-06	6.6032E-07
-3.4443E-08	1.1576E-07	1.0450E-06	-4.8216E-08
2.3094E-08	1.1452E-07	1.5336E-07	5.8081E-08
2.9113E-08	1.1022E-07	-2.7325E-07	8.4515E-07
4.8805E-08	5.8428E-08	3.2217E-07	1.4771E-06
7.9107E-09	3.4705E-08	7.5745E-07	1.0502E-06
-9.4315E-08	2.6413E-08	6.9269E-07	1.0873E-06
-1.0734E-07	7.1368E-08	1.0322E-06	4.6713E-07
-1.1486E-07	1.2970E-07	-9.9514E-09	3.4241E-07
-2.0671E-08	2.1668E-07	1.3372E-07	8.2438E-07
7.2974E-08	2.2489E-07	-4.4980E-07	1.1698E-06
1.5952E-07	1.8173E-07	8.7770E-07	1.8965E-06
2.3740E-07	8.0296E-08	4.5626E-07	4.5307E-07
2.0267E-07	-5.7172E-08	2.7561E-07	1.8576E-06
9.2945E-08	-1.0938E-07	1.2081E-06	7.7418E-07
3.3493E-08	-1.1473E-07	3.5092E-07	9.8161E-07
-1.0963E-07	-1.0668E-07	6.4799E-07	6.7001E-07
-1.4795E-07	-6.1064E-08	7.4862E-08	1.4340E-06
-1.3581E-07	1.2273E-07	1.3782E-06	8.3993E-07
-4.0789E-08	1.6688E-07	-2.7329E-07	5.6156E-07
7.4582E-08	1.8990E-07	1.0227E-06	1.6842E-06
1.7773E-07	1.0675E-07	5.2383E-07	-9.0394E-08
1.9101E-07	-8.7231E-09	-4.2841E-07	1.4466E-06
1.6894E-07	-7.6056E-08	8.0791E-07	1.4625E-06
8.3078E-08	-1.0335E-07	6.5605E-07	1.1539E-06
3.5858E-08	-1.0662E-07	1.0538E-06	9.5027E-07
-6.7265E-08	-1.4892E-07	4.7900E-07	1.0509E-07
-6.9874E-08	-8.9423E-08	-6.4487E-07	1.1090E-06
-7.7353E-08	-6.4665E-08	8.7716E-07	1.8048E-06
-7.0668E-08	-8.0063E-09	1.1482E-07	3.5363E-07
-6.8861E-08	4.8975E-08	-1.3946E-07	2.5349E-06
-9.7797E-08	5.0387E-08	1.8733E-06	1.3992E-06
-8.7874E-08	2.6220E-08	8.0969E-07	9.2436E-07
-8.9632E-08	2.7422E-08	1.1966E-06	4.6823E-07
-8.1495E-08	3.0357E-08	-1.3486E-07	9.6754E-07
-5.6327E-08	1.1287E-07	1.4625E-06	1.1498E-06
1.3841E-08	6.4064E-08	-1.1213E-07	1.2410E-07
2.6101E-08	5.5359E-08	4.8025E-07	1.8252E-06
5.6374E-08	-1.2802E-08	8.3402E-07	6.6842E-07
8.6845E-08	-6.3211E-08	4.6656E-07	1.0503E-06
-4.0349E-09	-8.1156E-08	2.7527E-07	1.0576E-06
-9.0178E-08	-5.6583E-08	1.1779E-06	1.5845E-06
-8.9971E-08	1.3393E-08	7.9442E-07	-4.3945E-08
-9.4076E-08	7.6143E-08	-1.8028E-07	1.2663E-06
-8.7132E-08	7.0136E-08	6.6002E-07	1.2047E-06
-2.1248E-08	1.0264E-07	6.6719E-07	1.6115E-06
2.5079E-08	6.6434E-08	1.6239E-06	8.4224E-07
4.3293E-08	-2.5169E-08	8.5467E-07	5.5501E-08
2.5242E-08	-2.3753E-08	-8.2823E-08	-1.4615E-08
3.4382E-08	-5.2507E-08	-5.9811E-07	1.4611E-06
-2.3952E-08	9.5456E-09	8.3910E-07	1.6310E-06
-5.6064E-08	2.9560E-08	8.0650E-07	9.9524E-07
-8.5471E-08	2.3289E-08	7.2478E-07	5.8335E-07
-2.4818E-08	2.8922E-08	3.2747E-09	9.7736E-07
-4.7795E-08	4.4859E-08	9.5676E-07	1.1813E-06
6.2236E-09	5.0588E-08	3.8395E-07	1.8961E-07
-2.1769E-08	1.6828E-08	-2.0297E-07	8.3100E-07
-3.2377E-08	2.5062E-08	-2.2455E-07	9.9725E-07
8.7741E-09	2.3287E-08	-4.0574E-07	1.6428E-06
-5.8960E-09	3.9500E-08	3.0654E-07	2.0482E-06
3.6196E-08	3.8315E-08	5.0161E-07	1.7492E-06
3.7240E-08	4.1847E-08	8.0915E-07	2.1747E-06
7.7388E-08	3.7574E-08	1.5036E-06	1.3621E-06
1.1722E-07	-7.9293E-09	6.0302E-07	1.3995E-06
9.2813E-08	-3.2234E-08	1.9176E-06	1.8582E-06
3.9700E-08	-9.7140E-08	1.6844E-06	-1.3560E-07
-2.7763E-08	-1.0778E-07	1.7475E-07	6.4721E-07
-3.8613E-08	-8.4929E-08	1.1750E-06	9.5177E-07
-7.9277E-08	-5.0101E-08	3.9267E-07	2.1191E-07
-8.0108E-08	-1.2441E-08	5.9826E-07	1.2755E-06
-1.1035E-07	2.8516E-08	7.9672E-07	-3.1129E-07
-9.9706E-08	6.0259E-08	-1.5941E-06	1.1148E-06
-6.0826E-08	4.0490E-08	9.4570E-07	2.9129E-06
-1.0153E-08	3.3038E-08	1.3733E-06	8.6755E-07
-1.9848E-09	1.5786E-08	8.7903E-07	1.0452E-06
7.2609E-09	-2.7932E-08	4.3623E-07	7.6993E-07
5.1515E-09	-2.4479E-08	9.8137E-07	1.7587E-06
-5.3728E-08	-3.4495E-08	1.2562E-06	2.0671E-07
-7.0563E-08	4.3078E-09	1.9399E-07	1.1866E-06
-6.1194E-08	-1.8285E-08	1.3786E-06	7.5009E-07
-6.9589E-08	2.8817E-08	3.8544E-07	5.0955E-07
-3.2127E-08	4.8726E-08	7.5488E-07	6.0936E-07
-5.6639E-08	7.1084E-09	1.4383E-07	7.4128E-07
1.0499E-08	5.4046E-08	8.8759E-07	6.7782E-07
-2.7812E-09	4.3686E-08	-2.0284E-07	2.4954E-07
1.0655E-08	2.0169E-08	3.4075E-08	1.1968E-06
2.1770E-08	3.5775E-08	8.0538E-08	1.0572E-06
1.5071E-08	-1.3561E-08	5.2276E-07	1.0881E-06
2.7102E-08	-3.1732E-09	-3.3748E-07	7.7602E-07
-1.2912E-08	-2.8484E-08	2.1932E-07	2.0208E-06
-2.3687E-08	-2.5327E-08	7.0058E-07	1.1891E-06
-5.9414E-08	-4.4972E-08	7.3135E-07	1.3896E-06
-6.9063E-08	3.2046E-09	4.3827E-07	6.6071E-07
-7.1896E-08	4.3356E-08	4.9656E-07	1.8402E-06
-6.6306E-08	6.5197E-08	1.5542E-06	1.5730E-07
-6.0933E-08	9.2800E-08	-7.8224E-07	1.2586E-07
-1.9859E-08	6.4694E-08	-2.0247E-07	1.5020E-06
4.5529E-08	3.3233E-08	-3.2829E-07	1.3151E-06
3.3833E-08	-9.2375E-09	2.3123E-07	2.2679E-06
7.0422E-08	3.8799E-08	1.1227E-06	1.2520E-06
2.9685E-08	1.4720E-08	-4.2294E-08	9.6012E-07
2.9705E-08	3.9489E-09	4.6781E-07	1.9006E-06
1.4335E-08	-1.4299E-08	5.5899E-07	9.1658E-07
1.6189E-08	-7.4886E-08	3.8651E-08	1.8393E-06
-2.7308E-08	-5.1386E-08	1.0163E-06	1.2101E-06
3.2719E-09	-5.4944E-08	-2.0211E-07	1.3191E-06
2.5844E-08	9.0982E-09	7.3535E-07	1.8651E-06
3.8934E-08	-4.3056E-08	2.7733E-07	1.5116E-06
1.0616E-08	-4.6707E-08	1.1388E-06	2.0579E-06
5.1505E-08	-4.2113E-08	1.1415E-06	8.3553E-07
5.8238E-08	-5.1969E-08	3.2179E-07	8.2072E-07
-3.2856E-09	-6.5648E-08	-2.3632E-07	1.7391E-06
-3.5741E-08	-9.0175E-08	1.3414E-06	2.1549E-06
-6.1572E-08	-5.4266E-08	7.4417E-07	7.3910E-07
-5.3556E-08	-6.9530E-08	7.1437E-07	1.8117E-06
-4.6306E-08	-5.8413E-10	9.8116E-07	7.3744E-07
-8.1985E-08	4.1078E-08	2.1185E-07	1.3734E-06
-6.3071E-08	2.2592E-08	7.3806E-07	1.3729E-06
-4.2961E-08	3.4712E-08	7.8750E-07	1.1499E-06
-3.8097E-08	2.7535E-08	-1.4699E-07	6.9461E-07
-3.0205E-08	2.6797E-08	-2.5802E-07	2.7260E-06
-1.6189E-08	5.4718E-09	1.8115E-06	2.1090E-06
2.0701E-08	3.9492E-08	1.1786E-06	9.1793E-07
2.3650E-08	1.4987E-08	5.8172E-07	1.1136E-06
-3.6103E-09	9.8221E-09	8.9422E-07	1.3234E-06
-3.3875E-08	7.5029E-09	-6.5876E-08	7.9573E-07
-2.6179E-08	4.0281E-08	4.2078E-07	3.1069E-06
3.1037E-08	1.8627E-08	2.3467E-06	9.3353E-07
-2.4788E-08	-3.4260E-08	8.0041E-08	1.1584E-06
7.8467E-09	1.8710E-09	1.7535E-06	1.4136E-06
-2.1519E-08	3.1954E-08	2.0558E-07	4.4143E-07
-1.5105E-08	2.0270E-08	4.6921E-07	1.8023E-06
