jMRUI Data Textfile

Filename: Export_to_jmrui.txt

PointsInDataset: 2048
DatasetsInFile: 1
SamplingInterval: 0.250000
ZeroOrderPhase: 0E0
BeginTime: 0E0
TransmitterFrequency: 1.2326E8
MagneticField: 2.8936E0
TypeOfNucleus:  
NameOfPatient:  
DateOfExperiment:  
Spectrometer:  
AdditionalInfo: 
SignalNames:  


Signal and FFT
sig(real)	sig(imag)	fft(real)	fft(imag)
Signal 1 out of 1 in file
1.8309E-06	7.7855E-07	-1.1679E-06	8.0660E-07
1.9373E-06	2.3388E-07	-5.5406E-07	1.1007E-06
1.3390E-06	-4.8132E-07	1.2160E-07	1.1599E-06
9.5208E-07	-8.9800E-07	6.4912E-08	4.2003E-07
8.9307E-08	-1.0469E-06	1.2431E-07	9.9776E-07
-3.8043E-07	-7.8160E-07	4.5945E-07	-5.5994E-08
-7.2975E-07	-3.7592E-07	-6.2410E-07	4.3533E-07
-4.9796E-07	6.1906E-08	-1.3038E-08	7.3276E-07
-2.6382E-07	2.3074E-07	-7.1432E-08	9.2730E-07
1.8549E-07	2.4752E-07	7.0413E-07	5.2857E-07
3.3772E-07	9.9101E-08	-5.2300E-08	-1.2180E-08
4.2364E-07	-1.6612E-07	-2.0784E-07	4.0723E-07
2.1925E-07	-3.7572E-07	-3.6083E-07	5.6099E-07
3.0576E-08	-4.1015E-07	-9.1862E-08	1.0779E-06
-2.4547E-07	-3.1933E-07	6.9603E-07	7.1336E-07
-2.6665E-07	-1.3586E-07	2.0202E-08	-1.4588E-07
-2.7918E-07	-6.5666E-08	-3.2658E-07	7.3886E-07
-1.9968E-07	4.9165E-08	-8.8588E-09	3.9636E-07
-1.1682E-07	-2.1042E-08	-1.8445E-07	1.0097E-06
-9.0639E-08	-1.4597E-08	3.6986E-07	2.1763E-07
-1.7411E-07	-1.0731E-07	-7.6838E-07	9.4570E-07
-2.5029E-07	-9.2772E-08	9.7828E-07	1.0998E-06
-3.3880E-07	-3.2079E-08	-2.2643E-08	-2.7517E-07
-3.2175E-07	1.0994E-07	-3.3935E-07	7.6183E-07
-2.3057E-07	1.7292E-07	5.7610E-09	5.3860E-07
-6.2538E-08	2.0723E-07	-2.0961E-07	4.4914E-07
2.5208E-08	1.6635E-07	-5.8596E-07	7.3035E-07
5.6227E-08	4.7214E-08	-1.6173E-07	1.1851E-06
-1.5503E-08	-4.0289E-08	4.6400E-09	9.0959E-07
-7.5937E-08	-4.9571E-08	1.9097E-08	8.5277E-07
-2.2462E-07	-2.6314E-09	-2.5481E-07	7.9453E-07
-2.7044E-07	1.1575E-07	-2.8708E-07	1.1233E-06
-2.2604E-07	2.1730E-07	-3.1758E-07	1.5411E-06
-1.4136E-07	2.8944E-07	8.2628E-07	1.9594E-06
-9.4616E-09	3.3457E-07	1.2281E-06	3.7257E-07
9.5119E-08	2.8273E-07	-1.1977E-07	3.2897E-07
1.5214E-07	1.8419E-07	1.4726E-07	1.0125E-06
1.4176E-07	7.4701E-08	3.7265E-07	7.1161E-07
8.5295E-08	6.8993E-09	1.3803E-07	3.2388E-07
8.1459E-08	4.1979E-08	-7.6625E-07	7.5117E-07
6.3250E-08	1.1445E-07	1.2682E-07	1.7544E-06
1.3008E-07	9.6131E-08	4.4022E-07	6.3685E-07
1.6120E-07	7.1537E-08	-2.0350E-07	1.2158E-06
1.9665E-07	-3.9690E-08	6.9436E-07	9.2331E-07
1.5920E-07	-1.3741E-07	-3.6217E-07	1.9384E-07
8.1432E-08	-1.7171E-07	-1.0359E-06	1.5689E-06
9.5965E-09	-1.2699E-07	3.1359E-07	2.2847E-06
-2.6475E-08	-6.5695E-08	6.4182E-07	1.3635E-06
-3.8120E-08	1.8448E-08	6.5650E-07	1.7545E-06
-2.8475E-08	2.2168E-08	1.3169E-06	7.2023E-07
2.4760E-08	-1.2346E-08	-1.2656E-07	5.0851E-07
4.7590E-08	-1.7443E-08	2.3364E-07	1.6863E-06
5.1388E-08	-5.6099E-08	1.0354E-06	1.0751E-06
-6.3493E-09	-1.1727E-07	2.9952E-07	4.9380E-07
-5.9543E-08	-9.0193E-08	5.7574E-08	1.3322E-06
-1.3306E-07	-5.4853E-08	6.6308E-07	1.0247E-06
-1.6707E-07	-3.1262E-08	-9.1273E-08	1.0297E-06
-1.0367E-07	4.8878E-08	4.6466E-07	2.0005E-06
-7.3907E-08	8.3538E-08	1.5378E-06	1.1376E-06
-1.1858E-08	1.0650E-07	4.0113E-07	3.0330E-07
4.7937E-08	4.4935E-08	4.7919E-07	1.5119E-06
1.2430E-07	1.4059E-08	1.0499E-06	3.9529E-07
4.0750E-08	-8.6178E-08	-4.5292E-08	9.0108E-07
2.6502E-09	-1.1457E-07	8.5055E-07	7.0991E-07
-1.0995E-07	-9.1464E-08	-6.0975E-07	5.5374E-07
-1.5170E-07	-3.8735E-08	1.5848E-07	2.0925E-06
-1.6018E-07	5.3830E-08	8.5832E-07	1.1712E-06
-1.4643E-07	8.4259E-08	2.9173E-07	1.2433E-06
-1.0894E-07	9.6112E-08	6.7954E-07	1.6698E-06
-3.8327E-08	9.4289E-08	1.1727E-06	1.2380E-06
-5.6733E-08	6.1222E-08	8.7174E-07	8.8999E-07
-1.2818E-09	1.8178E-08	8.1478E-07	9.4477E-07
-3.0739E-08	2.4621E-08	8.0275E-07	9.4208E-07
-7.1800E-08	2.5567E-08	9.9214E-07	6.7620E-07
-4.6798E-08	8.8976E-08	4.1017E-07	2.9030E-07
3.5993E-09	7.3642E-08	-8.4445E-08	8.6440E-07
1.6421E-08	1.0071E-07	1.7733E-07	1.3578E-06
2.0646E-09	6.1907E-08	4.9210E-07	1.5465E-06
6.4718E-09	4.4198E-08	1.1837E-06	1.3970E-06
-3.1949E-08	2.2008E-08	7.9288E-07	4.1835E-07
-8.1915E-08	2.5761E-08	1.6471E-07	1.3757E-06
-8.3591E-08	7.2220E-08	1.3592E-06	1.0566E-06
-5.6464E-08	1.5350E-07	1.2814E-07	2.7682E-07
1.6510E-08	2.0416E-07	-4.8020E-08	1.9058E-06
7.7526E-08	1.8208E-07	1.5410E-06	1.7840E-06
1.4071E-07	1.5278E-07	1.3591E-06	5.1763E-07
1.5458E-07	6.7760E-08	6.8234E-07	6.9475E-07
1.1876E-07	-3.0777E-08	7.3265E-07	8.4557E-07
8.9025E-08	-9.6663E-08	9.4722E-07	8.2903E-07
2.4394E-08	-1.1658E-07	3.4674E-07	1.6378E-07
-6.0662E-08	-6.4143E-08	-2.4185E-07	1.8088E-06
-8.2183E-08	-2.6890E-10	1.8357E-06	1.5725E-06
-9.5823E-08	4.3076E-08	1.0324E-06	2.2817E-07
-1.3928E-09	1.3511E-07	6.7637E-07	6.1091E-07
5.1870E-08	1.2311E-07	3.9909E-07	8.1902E-07
9.6957E-08	1.1834E-07	1.0095E-06	9.3689E-07
1.4151E-07	4.9378E-08	4.6099E-07	3.9286E-07
1.4942E-07	-4.3797E-08	4.6503E-07	9.7495E-07
6.0449E-08	-6.7435E-08	3.1776E-07	9.0333E-07
1.2257E-08	-1.0299E-07	9.6375E-07	1.4849E-06
-6.2282E-08	-7.7490E-08	1.0640E-06	2.4567E-07
-5.1661E-08	-5.6831E-08	1.9388E-07	8.9824E-07
-4.0235E-08	-1.8876E-08	9.9333E-07	7.5738E-07
-1.9768E-08	-2.3389E-08	1.4215E-07	3.9400E-07
-1.5522E-08	-1.2500E-08	1.6178E-07	1.2370E-06
-6.8057E-08	3.9737E-08	6.2902E-07	1.1659E-06
-4.4294E-08	-2.7543E-08	5.3859E-07	9.7472E-07
-5.1180E-08	4.4564E-08	4.6244E-07	1.3072E-06
-8.7499E-08	1.1720E-08	1.0470E-06	1.2550E-06
-7.0366E-08	7.5339E-08	8.6838E-07	7.0343E-07
2.6195E-08	5.3435E-08	4.5061E-07	8.3534E-07
7.4729E-08	5.2750E-08	4.5581E-07	1.4308E-06
3.4811E-08	-6.2423E-09	1.3726E-06	1.3126E-06
4.8273E-08	-4.0330E-08	9.9846E-07	6.4388E-07
-6.5038E-09	-5.4236E-08	1.2523E-06	8.0371E-07
-2.7458E-08	-5.4366E-08	5.8465E-07	-6.1880E-08
-8.7482E-08	8.0124E-09	1.8116E-07	1.1398E-06
-8.4928E-08	5.8769E-08	7.9647E-07	7.2647E-07
-7.7225E-08	8.9870E-08	4.5720E-07	1.2293E-06
-1.5396E-08	6.2832E-08	1.3013E-06	6.9238E-07
-1.4296E-08	4.9296E-08	3.3815E-07	4.8530E-07
2.9714E-08	3.0179E-08	7.0494E-07	9.1429E-07
3.3521E-08	8.8373E-09	4.6381E-07	6.7751E-07
4.8618E-08	-1.2837E-08	5.7471E-07	9.7193E-07
2.7712E-08	-2.1828E-08	5.3336E-07	8.5846E-07
-3.4043E-08	-1.3762E-08	6.4063E-07	1.1434E-06
-4.4882E-08	6.7746E-08	9.7308E-07	8.6616E-07
-4.2354E-08	1.8286E-08	6.3990E-07	7.5151E-07
-3.7403E-08	5.2417E-08	1.0344E-06	7.8556E-07
8.9399E-10	2.7365E-08	2.1148E-07	1.7537E-07
-4.3632E-09	3.2107E-08	3.4900E-07	1.7408E-06
1.1219E-08	5.4409E-08	1.4581E-06	4.9777E-07
-8.1973E-09	3.3605E-08	2.4460E-07	8.6759E-07
2.1050E-08	2.9600E-08	1.5681E-06	7.3910E-07
3.5796E-08	4.3604E-08	4.6795E-07	-1.6368E-07
7.8846E-08	4.4738E-08	3.9775E-07	3.3101E-07
3.9530E-08	2.7592E-09	-3.5046E-07	3.6173E-07
9.3247E-08	-2.7662E-08	2.4926E-07	1.4399E-06
6.3426E-08	-4.3974E-08	6.9251E-07	5.3512E-07
6.0056E-08	-9.1528E-08	-8.0568E-08	7.1419E-07
3.0373E-08	-8.3805E-08	3.6659E-07	1.2393E-06
-4.0092E-08	-1.0716E-07	5.0030E-07	5.6756E-07
-6.6714E-08	-5.3621E-08	-2.7375E-07	1.0688E-06
-4.4804E-08	-8.6319E-09	7.0211E-07	1.4400E-06
-4.1628E-08	2.7338E-09	3.2004E-07	5.7207E-07
1.0441E-08	3.8374E-09	-6.7617E-08	1.4782E-06
-2.6502E-09	1.9593E-08	8.9489E-07	1.4414E-06
2.7253E-08	2.1801E-08	5.2254E-07	6.9243E-07
1.1524E-09	-1.4244E-08	6.2850E-10	1.4152E-06
-1.3279E-08	-5.4452E-08	9.7640E-07	1.9271E-06
-1.5754E-08	-1.2395E-08	1.7462E-06	8.4508E-07
-4.7544E-08	-3.5099E-08	6.2817E-07	2.0374E-08
-4.8747E-08	-1.7796E-08	4.9590E-07	8.6598E-07
-2.6111E-08	3.2022E-08	4.6982E-07	-2.2323E-08
-5.9616E-08	3.0295E-08	-6.4693E-07	9.3679E-07
-8.6994E-09	3.8338E-08	3.3129E-07	1.2816E-06
-2.4713E-08	3.7582E-08	-4.3411E-08	1.0733E-06
5.9969E-10	7.5254E-09	1.1695E-07	1.4500E-06
1.9387E-08	1.4085E-08	3.2450E-07	1.6586E-06
5.5307E-08	1.5550E-08	6.4049E-07	1.3650E-06
2.4874E-08	-1.6165E-08	4.9233E-07	1.5782E-06
4.2297E-08	-1.2131E-08	8.0761E-07	1.2453E-06
1.6582E-08	-3.0201E-08	5.8597E-07	1.7322E-06
-9.4519E-09	-2.8493E-08	1.5150E-06	9.6490E-07
-2.6758E-08	-5.8451E-08	1.4525E-07	8.4951E-07
-5.2635E-08	-5.2083E-08	9.5174E-07	1.6256E-06
-6.8345E-08	-1.2271E-08	1.0811E-06	1.0155E-06
-7.4819E-08	-1.1383E-08	9.4346E-07	4.8438E-07
-5.5527E-08	3.8482E-08	-3.1118E-09	1.1319E-06
-2.9699E-08	6.5424E-08	1.3202E-06	1.1072E-06
6.4096E-09	6.2106E-08	-1.3310E-07	4.8844E-07
2.4886E-08	3.4306E-08	6.8530E-07	1.8391E-06
4.9896E-08	2.3600E-08	5.8107E-07	9.2437E-07
3.1665E-08	2.2782E-08	1.1329E-06	1.8140E-06
5.0248E-08	1.6973E-08	1.4804E-06	1.2586E-07
6.2394E-08	-9.7096E-09	6.0924E-08	2.9464E-07
5.2842E-08	-6.8596E-09	-8.8770E-08	9.2931E-07
-8.8693E-09	6.0349E-09	1.7589E-07	1.4134E-06
-2.5368E-08	-1.7804E-08	3.6882E-07	1.3001E-06
1.3977E-09	-4.2256E-08	4.2106E-07	1.4473E-06
1.0567E-08	-7.8099E-09	4.5730E-07	1.5555E-06
7.0974E-08	-1.6871E-08	1.0180E-06	1.6679E-06
4.6848E-08	3.2334E-08	9.6767E-07	1.0106E-06
2.6510E-08	-3.8225E-08	7.5516E-07	1.2306E-06
2.5004E-08	-2.8208E-08	9.8132E-07	9.6199E-07
-2.2229E-09	-6.8869E-08	4.0375E-07	6.3857E-07
-2.9447E-08	-9.6346E-08	-2.4713E-08	1.5697E-06
-2.9319E-08	-5.5685E-08	1.0840E-06	1.6631E-06
-3.5294E-08	-2.0901E-08	5.0932E-07	1.0278E-06
-6.0045E-08	-1.5185E-08	6.7362E-07	1.9535E-06
-7.1939E-08	-2.3113E-09	1.4281E-06	1.4932E-06
-2.8537E-08	1.1969E-08	1.1927E-06	1.1366E-06
-1.4146E-08	4.2980E-08	1.4381E-06	1.2875E-06
5.8048E-09	1.8630E-08	1.6740E-06	2.2021E-07
-1.2540E-10	-1.4290E-08	2.6780E-07	2.3711E-07
-8.6310E-09	9.4086E-10	6.6678E-07	8.0997E-07
2.9913E-08	-2.8162E-09	-1.3058E-07	5.9196E-07
3.6281E-08	7.3435E-09	1.8972E-07	2.0453E-06
-1.1498E-08	2.1053E-08	1.5048E-06	1.6505E-06
1.8867E-08	1.8542E-08	1.3724E-06	4.7237E-07
9.4307E-09	-8.5787E-09	3.8996E-07	8.3743E-07
-2.3683E-08	-9.7631E-09	1.2966E-06	9.0623E-07
2.1828E-08	5.7503E-09	2.5929E-07	1.7507E-07
4.3693E-09	2.8826E-08	3.6222E-07	1.1910E-06
2.1614E-08	2.2342E-08	3.8044E-07	7.5597E-07
-3.9613E-08	-1.8316E-08	3.5646E-07	1.1114E-06
-1.3039E-08	1.4493E-08	-6.3394E-08	9.2303E-07
