jMRUI Data Textfile

Filename: Export_to_jmrui.txt

PointsInDataset: 2048
DatasetsInFile: 1
SamplingInterval: 0.250000
ZeroOrderPhase: 0E0
BeginTime: 0E0
TransmitterFrequency: 1.2326E8
MagneticField: 2.8936E0
TypeOfNucleus:  
NameOfPatient:  
DateOfExperiment:  
Spectrometer:  
AdditionalInfo: 
SignalNames:  


Signal and FFT
sig(real)	sig(imag)	fft(real)	fft(imag)
Signal 1 out of 1 in file
1.6553E-06	8.6339E-07	5.9048E-07	9.9780E-08
1.3248E-06	2.3568E-07	-1.0057E-06	3.4677E-08
9.2220E-07	-2.7532E-07	5.9759E-07	1.0863E-06
7.0342E-07	-4.9839E-07	-4.2283E-07	-5.6707E-07
1.2645E-07	-7.4792E-07	-3.9316E-07	1.5409E-06
-2.4475E-07	-5.6838E-07	6.7708E-07	1.7155E-07
-4.8974E-07	-2.8317E-07	-4.5292E-07	5.4032E-07
-3.5674E-07	4.5346E-08	-3.0822E-08	8.9348E-07
-1.7945E-07	1.6535E-07	2.6703E-07	1.2930E-06
1.1089E-07	1.6870E-07	1.0439E-06	6.4762E-07
2.5579E-07	-2.0415E-08	3.8523E-07	-6.3186E-08
2.7850E-07	-1.8100E-07	-3.7800E-07	5.8288E-07
1.2812E-07	-3.5300E-07	6.5880E-07	1.1336E-06
1.3916E-08	-2.9364E-07	2.7150E-07	-2.5157E-08
-1.8723E-07	-2.7114E-07	-8.1879E-08	1.1707E-06
-2.0660E-07	-1.2444E-07	7.4212E-07	6.5251E-07
-2.2173E-07	-5.4660E-08	5.8719E-07	7.7019E-07
-1.0636E-07	-1.5146E-09	7.7765E-07	-3.4768E-07
-1.0205E-07	1.6275E-08	-1.0083E-06	2.6965E-07
-3.2205E-08	-4.4614E-08	-3.6512E-08	1.6280E-06
-1.4903E-07	-1.3158E-07	7.5261E-07	1.3429E-06
-1.6648E-07	-8.2269E-08	1.4286E-06	5.5188E-07
-2.4706E-07	-9.3287E-08	4.2314E-07	-6.1710E-07
-2.3872E-07	-9.1781E-09	-7.4864E-07	3.3551E-07
-1.7189E-07	7.7348E-08	-4.6038E-08	1.0672E-06
-4.4463E-08	1.2275E-07	-1.9568E-07	6.7603E-07
-1.8020E-08	1.0711E-07	-1.6690E-07	1.5629E-06
3.0029E-08	5.0634E-08	5.1545E-07	1.2108E-06
-6.6359E-10	-2.4400E-08	3.0227E-07	1.4988E-06
-6.4518E-08	-3.4209E-08	1.2861E-06	1.2727E-06
-1.5811E-07	-5.6447E-08	9.2179E-07	3.6371E-07
-2.1735E-07	7.5420E-08	3.7532E-07	4.0233E-07
-1.8944E-07	1.4016E-07	4.1907E-08	7.4773E-07
-8.8773E-08	1.8804E-07	2.4046E-07	1.2734E-06
-1.6748E-08	1.9580E-07	9.8577E-07	1.2252E-06
2.8051E-08	1.7706E-07	8.7370E-07	1.7609E-07
1.0396E-07	1.2952E-07	-3.0589E-07	4.7275E-07
8.9575E-08	7.7747E-08	-1.3459E-07	1.5332E-06
3.4240E-08	2.2686E-08	7.2262E-07	1.8048E-06
7.2130E-08	2.3356E-08	1.2469E-06	1.2707E-06
2.6704E-08	2.6024E-08	1.2774E-06	9.0110E-07
9.6589E-08	8.1792E-08	1.1742E-06	3.8287E-07
1.0506E-07	6.0028E-08	7.1192E-07	2.5181E-07
1.4347E-07	1.3949E-08	2.0628E-07	3.3485E-07
9.7327E-08	-1.2134E-07	3.0171E-07	1.2313E-06
8.3060E-08	-1.4402E-07	1.1531E-06	6.5037E-07
-5.7179E-09	-1.4361E-07	3.5693E-07	2.8449E-07
-1.5805E-08	-8.2397E-08	3.3407E-07	5.9544E-07
-2.6338E-08	3.3666E-08	-1.4830E-08	7.4585E-07
-1.1342E-08	-1.4506E-08	4.3213E-07	1.2517E-06
3.9314E-08	-4.0170E-08	6.4996E-07	6.3080E-07
3.8709E-08	-6.0492E-08	-1.2697E-07	6.2415E-07
4.7563E-08	-1.0006E-07	-2.2273E-07	1.5455E-06
5.2981E-08	-8.5828E-08	4.4468E-07	1.8102E-06
-2.6432E-09	-1.1816E-07	7.0574E-07	2.0037E-06
-5.9749E-08	-1.0733E-07	1.8896E-06	1.8933E-06
-1.1917E-07	-3.2135E-08	1.8585E-06	3.5235E-07
-7.9910E-08	-4.2181E-08	8.4305E-07	4.2739E-07
-8.7116E-08	-9.4322E-09	7.9598E-07	5.7816E-07
1.4514E-08	3.7089E-08	5.6647E-07	1.1005E-06
2.2077E-08	-1.0587E-08	1.4601E-06	1.0095E-06
9.6233E-08	-6.1267E-08	1.0561E-06	4.7875E-07
6.8343E-08	-8.2490E-08	1.3177E-06	4.8788E-07
1.0972E-09	-1.3466E-07	7.0351E-07	8.3685E-08
-8.5458E-08	-1.0783E-07	1.0537E-06	4.1688E-07
-1.0880E-07	-4.1064E-08	2.5838E-07	-4.8112E-07
-1.5981E-07	-9.7599E-09	-2.1973E-07	8.1430E-07
-1.7788E-07	4.6126E-08	2.4135E-07	6.9623E-07
-1.3006E-07	5.0824E-08	2.8664E-07	1.0898E-06
-8.2130E-08	6.2235E-08	1.7308E-07	6.9584E-07
-3.8968E-08	2.5834E-08	3.1819E-07	1.9754E-06
-6.5680E-08	2.3724E-08	1.7820E-06	7.4906E-07
-6.7308E-08	4.7730E-08	1.6459E-07	1.8811E-07
-1.1918E-08	6.0232E-08	3.8733E-07	1.3333E-06
-2.6057E-08	1.1836E-07	1.0367E-06	8.6245E-07
9.1199E-09	5.0583E-08	2.8218E-07	5.0195E-07
2.4638E-08	1.0099E-07	4.5210E-07	1.5701E-06
-1.3355E-09	6.4591E-09	1.2299E-06	8.1697E-07
-3.8793E-08	-7.1488E-09	5.4260E-07	7.6948E-07
-3.3173E-09	3.9517E-09	8.0227E-07	8.6852E-07
-7.6822E-08	3.2231E-08	5.6014E-07	7.9339E-07
-8.2663E-08	5.2261E-08	5.1902E-07	1.0715E-06
-8.8275E-08	7.4727E-08	9.3127E-07	1.1416E-06
-2.5285E-08	1.1862E-07	5.2304E-07	9.0668E-07
-1.0706E-09	1.1057E-07	1.3267E-06	1.8108E-06
1.1550E-07	1.0155E-07	1.6947E-06	8.3256E-08
1.2004E-07	7.6539E-08	6.5880E-07	8.7585E-07
1.4375E-07	-2.6318E-08	1.7885E-06	1.8158E-07
1.0526E-07	-8.3697E-08	4.1978E-07	-4.8465E-07
6.2770E-08	-9.7815E-08	-4.4482E-07	1.9514E-07
-4.6773E-09	-5.5791E-08	4.2434E-08	1.9984E-06
-6.4342E-08	9.9173E-09	1.7736E-06	5.3846E-07
-5.7455E-08	4.2342E-08	-1.1360E-07	4.1029E-07
-4.4829E-08	6.6833E-08	1.0267E-06	1.1822E-06
2.4230E-08	9.0560E-08	6.5419E-07	3.8242E-07
1.0119E-07	6.9230E-08	5.4963E-07	5.5219E-07
9.2552E-08	1.6180E-08	1.1984E-07	1.0343E-06
1.2151E-07	-6.0230E-08	1.4011E-06	1.2298E-06
4.2769E-08	-8.3808E-08	1.1651E-06	-1.4731E-07
-3.2022E-08	-6.0788E-08	4.6278E-08	-8.8068E-08
-2.3260E-08	-1.1156E-07	2.1629E-07	9.2686E-07
-4.9481E-08	-5.3857E-09	5.3611E-07	-3.1311E-07
-7.9168E-09	1.6306E-08	-1.1714E-06	8.4511E-07
-3.5273E-08	-2.2343E-08	4.0957E-07	9.9557E-07
-6.2043E-09	7.7854E-09	-1.3360E-06	1.2931E-06
-4.1581E-08	-1.0331E-08	1.0962E-06	2.6179E-06
-5.7977E-08	-2.5152E-09	2.6917E-07	6.4520E-07
-7.0325E-08	3.6147E-08	7.3065E-07	2.2778E-06
-5.1056E-08	3.4816E-08	8.8628E-07	6.6898E-07
-4.1857E-08	1.3024E-08	6.4064E-07	1.9236E-06
-3.3806E-11	4.6034E-08	1.3371E-06	4.1466E-07
2.6828E-08	-4.8029E-10	-2.8145E-07	1.2463E-06
2.5523E-08	2.1943E-09	1.1381E-06	1.7859E-06
3.4063E-08	-9.6248E-10	8.6309E-07	1.0005E-06
-8.7613E-09	-5.0236E-08	9.5740E-07	1.3906E-06
-2.7209E-08	-5.0076E-08	1.1420E-06	8.1471E-07
-5.3111E-08	1.8170E-08	4.4743E-07	8.4169E-07
-8.1430E-08	2.4437E-08	4.6185E-07	1.5442E-06
-4.8632E-08	8.9343E-08	1.3084E-06	1.8824E-06
-3.0091E-08	8.0297E-08	1.9589E-06	7.1727E-07
-1.5966E-09	2.1800E-08	6.0674E-07	3.3558E-07
3.0856E-08	-4.7139E-09	9.6450E-07	1.5331E-06
1.9541E-08	-5.9691E-08	1.9161E-06	5.8204E-07
2.7140E-08	-2.0519E-08	8.2096E-07	-2.1246E-07
1.3725E-08	-2.2972E-08	3.9684E-07	6.5246E-07
1.9317E-09	-3.0872E-08	7.2833E-07	4.4578E-07
-3.9812E-08	-2.9326E-08	3.1069E-07	6.2397E-07
-4.2890E-08	2.9567E-08	3.0672E-07	5.2997E-07
-1.4785E-08	9.8873E-10	-1.3623E-07	1.3742E-06
-7.4151E-09	4.0463E-08	9.9605E-07	1.3017E-06
-1.0357E-08	1.3127E-08	4.3715E-07	1.2001E-06
-6.1131E-09	4.4847E-08	1.5903E-06	1.0074E-06
-1.4131E-08	3.0368E-08	-7.4003E-08	-8.5910E-08
2.8971E-08	2.7019E-08	1.2100E-08	2.2021E-06
2.6610E-08	4.5839E-08	1.6650E-06	1.1755E-06
6.2917E-08	-1.1322E-08	3.9734E-07	5.8049E-07
5.1323E-08	-4.3105E-08	7.6499E-07	1.8071E-06
4.8597E-08	-6.3650E-09	1.5650E-06	6.7775E-07
8.4579E-08	-1.7335E-08	4.6989E-07	9.0948E-07
2.3711E-08	-7.4032E-08	1.3975E-06	8.7546E-07
8.4607E-09	-7.9830E-08	3.7265E-07	6.1088E-07
-4.1815E-08	-5.9711E-08	1.2377E-06	1.1923E-06
-2.5554E-08	-6.5564E-08	8.9285E-07	3.9727E-07
-2.7157E-08	-4.0941E-08	9.5353E-07	2.5682E-07
-5.8036E-08	8.6289E-09	-6.0988E-07	4.1770E-07
7.8494E-10	-1.0051E-09	7.3246E-07	2.0418E-06
2.6213E-08	4.6338E-10	8.6906E-07	7.5243E-07
-1.6118E-08	-3.1447E-08	1.3035E-06	1.1795E-06
-3.2856E-09	-1.7461E-08	3.6646E-07	-2.0705E-07
-9.9519E-09	-3.0601E-10	2.2122E-07	1.7623E-06
-1.2718E-08	-1.4511E-08	1.1399E-06	5.0147E-07
-5.6011E-08	-6.1201E-09	5.2510E-07	9.8615E-07
-4.7427E-08	3.0461E-08	4.3227E-07	4.2584E-08
-3.5230E-08	1.4143E-08	-4.5162E-07	1.8003E-06
-1.9979E-08	7.5172E-08	1.4893E-06	1.1079E-06
-5.0358E-09	3.9323E-08	3.4110E-08	5.8804E-07
-7.0157E-08	3.2479E-08	2.4905E-07	1.1284E-06
1.1092E-08	1.3723E-08	-2.4044E-07	1.8630E-06
-1.5322E-08	4.6244E-08	1.5313E-06	2.1864E-06
9.5699E-09	1.4022E-08	1.1348E-06	8.4211E-07
-3.9173E-09	-6.9681E-09	1.0726E-06	1.3237E-06
2.4521E-09	1.4200E-08	1.0147E-06	8.3535E-07
-7.5488E-09	2.0002E-08	1.0782E-06	1.1774E-06
1.1470E-08	-1.9126E-08	1.0888E-06	5.7672E-07
-6.6384E-09	-3.9334E-08	1.0439E-06	8.7267E-07
-6.3091E-08	-2.3221E-09	8.2866E-07	-3.8784E-07
-5.8784E-08	-7.3141E-09	-9.7985E-07	9.0862E-07
-9.5368E-08	-1.8339E-08	6.3419E-07	1.6515E-06
-2.7572E-08	2.7880E-08	-1.7948E-07	1.2662E-06
-3.2014E-08	4.9635E-08	1.0055E-06	2.2575E-06
5.2322E-08	6.8264E-08	7.2727E-07	1.1381E-06
4.0454E-08	5.9869E-08	1.3204E-06	2.2268E-06
3.7928E-08	1.9491E-08	1.6422E-06	4.4855E-07
6.9294E-08	-2.2598E-08	5.3695E-07	1.1955E-06
4.0637E-08	-2.7044E-08	1.0366E-06	1.1263E-06
6.0483E-08	1.7889E-08	1.1705E-06	1.7077E-06
7.7285E-08	-1.2571E-08	2.0150E-06	3.3132E-07
1.0292E-08	-1.2553E-08	8.9122E-08	3.3287E-07
-1.1860E-09	-1.6046E-08	8.5723E-07	1.6370E-06
3.0708E-08	-2.3330E-08	1.3893E-06	9.2196E-07
2.9851E-08	-5.8332E-09	1.2232E-06	6.5082E-07
4.0696E-08	-3.1429E-08	9.1478E-07	1.0524E-07
3.9636E-08	-5.8545E-08	-4.3461E-07	7.4115E-07
3.5311E-08	-1.0554E-09	1.0242E-06	2.4630E-06
3.5864E-08	-6.3946E-08	2.0881E-06	3.5487E-07
-2.9389E-08	-4.1114E-08	6.2163E-07	4.0360E-07
-4.2115E-08	-8.2863E-08	8.6268E-07	2.1005E-07
-3.4589E-08	-7.2391E-08	-2.5886E-07	9.1869E-07
-2.7199E-08	-8.8737E-08	1.1525E-06	1.2717E-06
-5.7995E-08	-1.7691E-08	1.1151E-07	4.5868E-07
-3.1700E-08	1.2622E-08	5.3013E-07	2.0068E-06
-6.0001E-08	2.4073E-08	1.5896E-06	9.4756E-07
-2.8445E-08	2.1850E-08	6.0577E-07	5.7072E-07
-2.7565E-08	1.8294E-08	8.5356E-07	1.3866E-06
-4.9534E-09	4.2364E-08	1.4175E-06	3.6454E-07
-6.6397E-09	-1.4663E-08	-9.4238E-08	6.7042E-07
3.1145E-10	-6.0588E-09	1.4647E-06	1.4939E-06
-1.3287E-09	1.7424E-08	5.4462E-07	-4.9649E-07
-9.3813E-09	1.9034E-08	-4.2005E-07	1.6684E-06
-2.8079E-08	3.3928E-08	1.1624E-06	1.1847E-06
3.4428E-09	-1.6230E-08	3.6242E-07	1.4110E-06
-5.9004E-09	3.6005E-08	1.7038E-06	1.3714E-06
-1.3085E-08	-2.2158E-09	1.2552E-06	5.1802E-07
-4.3523E-08	1.4183E-08	1.3345E-06	-4.0099E-09
-1.4405E-08	1.6414E-08	-3.2352E-07	7.3979E-08
7.4193E-09	1.2309E-08	7.1195E-07	1.2168E-06
