jMRUI Data Textfile

Filename: Export_to_jmrui.txt

PointsInDataset: 2048
DatasetsInFile: 1
SamplingInterval: 0.250000
ZeroOrderPhase: 0E0
BeginTime: 0E0
TransmitterFrequency: 1.2326E8
MagneticField: 2.8936E0
TypeOfNucleus:  
NameOfPatient:  
DateOfExperiment:  
Spectrometer:  
AdditionalInfo: 
SignalNames:  


Signal and FFT
sig(real)	sig(imag)	fft(real)	fft(imag)
Signal 1 out of 1 in file
1.5321E-06	8.4531E-07	1.0761E-07	2.9929E-07
8.9512E-07	2.1010E-07	3.2335E-07	9.5346E-07
6.2007E-07	-1.5161E-07	9.2639E-07	5.6630E-07
4.4467E-07	-3.0761E-07	4.0480E-07	6.6787E-07
8.9385E-08	-4.9156E-07	1.4914E-06	9.7318E-07
-1.6993E-07	-3.6682E-07	1.2723E-06	-6.1485E-07
-3.3122E-07	-2.4618E-07	-8.6227E-08	-1.3795E-07
-2.7243E-07	2.2252E-08	2.2951E-07	7.3664E-07
-8.3329E-08	1.0962E-07	7.4317E-07	4.5763E-07
1.3231E-07	8.6925E-08	1.5125E-07	2.3410E-07
2.1619E-07	-3.0567E-08	7.2338E-08	1.0195E-06
1.7433E-07	-1.7941E-07	7.4330E-07	1.3068E-06
7.9115E-08	-2.7109E-07	1.2105E-06	5.9828E-07
-5.8282E-08	-2.7664E-07	2.4236E-07	7.0952E-07
-1.8655E-07	-2.8185E-07	1.4768E-06	1.4384E-06
-2.2676E-07	-8.6604E-08	1.1876E-06	-2.0924E-07
-1.8828E-07	6.0125E-09	4.8028E-07	9.7209E-07
-8.3583E-08	6.0263E-08	1.4901E-06	2.6500E-07
-4.2024E-08	2.5552E-08	1.0545E-07	2.6016E-07
-2.0002E-08	-1.0124E-08	1.0290E-06	1.3415E-06
-6.9895E-08	-1.0220E-07	1.2556E-06	1.4676E-07
-1.2809E-07	-5.9146E-08	5.9623E-07	9.1220E-07
-1.9001E-07	-4.9013E-08	1.9814E-06	4.0786E-07
-1.5583E-07	-3.0910E-08	4.5235E-07	-7.1451E-07
-1.2892E-07	5.1027E-08	1.7717E-07	8.0008E-07
-3.9406E-08	1.0558E-07	8.1468E-07	6.6742E-07
1.9167E-08	1.7707E-08	1.0272E-06	5.8610E-07
2.7206E-08	-1.7806E-08	6.9160E-07	1.8003E-07
-9.0306E-09	-4.5379E-09	8.9807E-07	7.2298E-07
-6.2668E-08	-5.3354E-08	9.3199E-07	-2.7128E-07
-1.4315E-07	-6.8959E-08	-1.9032E-07	3.3815E-07
-1.6200E-07	-2.6167E-08	5.0934E-07	1.0558E-06
-1.7513E-07	5.5758E-08	7.5929E-07	5.3695E-07
-1.1298E-07	1.2234E-07	3.1186E-07	8.0903E-07
-3.6681E-08	1.4875E-07	1.0358E-06	9.6960E-07
2.1600E-08	1.2710E-07	6.3565E-07	4.3323E-07
4.2851E-08	1.5034E-07	8.2960E-07	8.6496E-07
3.8753E-08	1.1773E-07	5.1893E-07	4.8192E-07
4.1664E-08	3.9434E-08	7.9060E-07	1.1945E-06
2.4723E-08	7.3341E-08	9.1117E-07	7.3519E-07
1.5551E-08	6.7909E-08	1.4756E-06	1.0636E-06
5.1183E-08	5.5791E-08	1.1590E-06	-2.5101E-07
6.9693E-08	2.7945E-08	8.6422E-07	5.7789E-07
1.2799E-07	6.7240E-11	5.9593E-07	-7.2349E-07
1.3516E-07	-2.8952E-08	-6.2662E-07	1.1236E-06
8.3813E-08	-7.1247E-08	9.5401E-07	8.3629E-07
6.0129E-08	-8.5235E-08	4.1949E-08	1.1887E-06
-4.5885E-09	-5.0469E-08	1.4605E-06	1.1147E-06
-4.7469E-08	-6.2429E-08	4.9250E-07	5.9082E-07
-4.4971E-09	-7.7476E-09	1.1999E-06	1.2054E-06
6.7358E-09	-2.2662E-08	1.1203E-06	4.2566E-07
7.0433E-08	-5.4238E-08	8.9045E-07	6.0316E-07
5.7279E-08	-6.7139E-08	1.0749E-06	5.9300E-07
6.3134E-08	-8.3459E-08	8.8682E-07	-5.7219E-09
6.6279E-10	-1.3863E-07	1.5517E-07	6.7788E-07
-4.9872E-08	-9.6994E-08	1.0990E-06	7.3048E-07
-1.0597E-07	-7.2210E-08	4.5533E-07	2.2804E-07
-7.2103E-08	-1.9421E-08	5.8891E-07	7.0388E-07
-6.6668E-08	1.1963E-08	3.9838E-07	2.2302E-07
-2.7277E-08	1.5798E-08	-4.5634E-07	8.0054E-07
1.6534E-08	-1.3250E-08	2.4295E-07	2.1720E-06
1.0240E-07	-2.2255E-09	1.5583E-06	1.3086E-06
7.0710E-08	-6.8541E-08	6.9780E-07	9.2759E-07
1.8878E-08	-1.3137E-07	1.1865E-06	1.4354E-06
-3.0411E-08	-1.2010E-07	1.3984E-06	9.8276E-07
-7.6938E-08	-1.2576E-07	1.3430E-06	7.8182E-07
-1.4417E-07	-7.5512E-08	1.3648E-06	9.9059E-07
-1.3099E-07	-7.9931E-09	2.0731E-06	3.1800E-07
-1.2805E-07	4.5472E-08	1.1245E-06	-4.7100E-07
-1.0809E-07	3.1924E-08	6.4186E-07	-2.6744E-07
-9.0453E-08	2.9615E-08	-2.0237E-07	8.5325E-08
-4.5778E-08	2.5986E-08	1.5570E-07	1.1595E-06
-2.5758E-09	5.0218E-08	7.3480E-07	1.1256E-06
-2.5313E-09	4.0954E-08	1.2080E-06	8.4096E-07
-2.4116E-08	5.0472E-08	8.6442E-07	3.2039E-07
1.5244E-08	8.0641E-08	8.3211E-07	3.3232E-07
4.0142E-08	3.0651E-08	-1.1271E-07	-2.4655E-08
4.7069E-09	5.3064E-09	-3.5815E-07	1.6687E-06
-8.4943E-09	-3.1178E-08	1.0391E-06	1.6040E-06
-3.3473E-08	-2.2192E-08	9.3210E-07	1.3770E-06
-8.6616E-08	5.6935E-09	1.8545E-06	1.1930E-06
-1.0523E-07	4.9855E-08	1.3300E-06	-1.6719E-07
-9.5656E-08	4.7556E-08	2.3707E-07	4.5124E-07
-6.7263E-09	7.0527E-08	6.4466E-07	1.0519E-06
7.6183E-08	6.7748E-08	9.0900E-07	9.4627E-07
9.1627E-08	8.0928E-08	9.7088E-07	9.0047E-07
9.7593E-08	7.7260E-09	1.2027E-06	7.4325E-07
8.7653E-08	-2.3877E-08	7.9783E-07	2.8816E-07
7.5924E-08	-6.5687E-08	4.3747E-07	1.1081E-06
3.3866E-08	-6.5568E-08	1.6677E-06	1.0991E-06
-9.0495E-09	-9.9654E-08	1.2939E-06	-4.6743E-07
-4.8387E-08	-8.9657E-09	-4.6711E-07	1.9972E-07
-7.6790E-08	3.9508E-08	4.9824E-07	1.7085E-06
-4.4145E-08	2.1530E-08	1.1630E-06	6.3503E-07
3.4166E-08	4.0636E-08	4.3058E-07	8.7030E-07
5.2340E-08	3.0401E-08	9.0932E-07	1.0322E-06
6.9171E-08	-9.5946E-09	7.0177E-07	8.9407E-07
4.6340E-08	1.4743E-08	8.4472E-07	1.3251E-06
2.1493E-08	-6.3815E-08	1.6111E-06	1.1300E-06
-1.2847E-08	-7.1838E-08	1.2997E-06	2.4215E-07
-3.1563E-08	-6.5860E-08	9.4252E-07	5.5821E-07
-2.4297E-08	-3.9871E-08	6.9501E-07	3.2179E-07
-1.1308E-08	4.9715E-09	8.4719E-07	1.2621E-06
1.2763E-08	-3.0194E-08	1.5611E-06	6.2730E-08
-4.8592E-09	-4.9675E-08	1.8308E-07	3.9081E-07
-5.0443E-09	-5.7566E-08	9.8728E-07	7.2430E-07
-4.1707E-08	-3.0183E-08	5.5375E-07	5.2533E-07
-2.1341E-08	-3.3401E-08	8.5595E-07	4.8334E-07
-3.1637E-08	-2.1757E-08	1.4975E-07	5.8741E-07
-3.4255E-08	-2.0054E-08	5.9746E-07	1.0648E-06
-5.1432E-08	-2.0481E-09	7.4668E-07	1.1947E-06
-8.0269E-09	7.6497E-09	1.3081E-06	4.5588E-07
7.1211E-09	-8.0358E-09	2.5476E-08	8.3796E-07
7.2370E-09	2.2593E-08	1.6644E-06	1.1591E-06
1.9089E-09	-2.5523E-08	3.7602E-07	-8.3820E-08
2.0839E-09	-2.6941E-08	8.2942E-07	1.2746E-06
-4.1955E-08	-4.1014E-08	6.9360E-07	1.1000E-07
-2.7166E-08	-1.2776E-08	5.0890E-07	1.0286E-06
-2.2735E-08	1.3987E-08	5.2464E-07	3.0806E-07
-6.2335E-09	5.9827E-08	1.7614E-07	1.1195E-06
6.3994E-09	4.5777E-08	2.2662E-07	9.6038E-07
2.5133E-08	9.7787E-09	6.7094E-07	2.1527E-06
2.2972E-08	-9.4832E-09	1.8303E-06	8.5010E-07
9.5889E-11	-5.8258E-08	8.6370E-07	6.2542E-07
4.8999E-09	-2.2464E-08	8.3429E-07	5.1134E-07
4.7990E-09	-5.1824E-08	5.5657E-07	1.2786E-06
-2.8906E-08	-1.0378E-08	1.6223E-06	5.0798E-07
-2.8819E-08	-2.4736E-09	-1.2684E-08	2.6141E-07
-4.6086E-08	5.5650E-08	8.1567E-07	1.6309E-06
-5.8487E-08	1.7528E-08	1.4265E-06	3.6857E-07
-2.1487E-08	4.3982E-08	1.6682E-07	2.8851E-08
-1.7891E-08	3.0050E-08	-3.5601E-07	1.4337E-06
-8.4283E-09	4.3703E-08	1.3207E-06	1.8865E-06
3.3058E-08	-7.4278E-09	1.1548E-06	2.2032E-07
1.8387E-08	-1.3274E-09	-1.3810E-07	1.1566E-06
5.8566E-08	-7.1770E-09	1.1792E-06	2.0523E-06
6.3141E-08	-5.1051E-09	1.9754E-06	8.8666E-07
5.0587E-08	-4.7323E-08	1.1743E-06	-8.0889E-08
9.2766E-09	-2.4540E-08	1.1580E-07	5.2334E-07
2.2447E-08	-4.0432E-08	6.5878E-07	1.2792E-06
-5.1789E-09	-7.0576E-08	8.6682E-07	1.0203E-06
3.5195E-08	-4.3096E-08	1.1579E-06	1.1045E-06
-1.5191E-08	-6.9391E-08	1.1028E-06	4.7435E-07
-3.7614E-08	-5.9691E-08	6.2541E-07	7.0858E-07
-5.4426E-09	-3.8849E-08	8.2497E-07	9.6553E-07
-3.3611E-08	1.0246E-09	1.2315E-06	6.3829E-07
-3.3236E-08	-1.4144E-08	3.5871E-07	5.5820E-08
-4.2226E-08	-1.1822E-08	7.7123E-08	1.2589E-06
-1.5371E-08	-6.0684E-08	7.3388E-07	1.1903E-06
-1.2032E-09	-1.4890E-08	1.0627E-06	1.3126E-06
-3.0648E-08	-7.0972E-09	9.5899E-07	2.5493E-07
1.8890E-09	5.1127E-10	2.2549E-07	1.3241E-06
2.0497E-10	2.4582E-08	1.2237E-06	5.3318E-07
-3.6904E-09	2.1957E-08	-5.5365E-07	1.2753E-06
-2.1389E-08	8.0056E-08	1.7791E-06	2.2946E-06
-1.0155E-08	2.3936E-08	1.5415E-06	3.5837E-07
7.7461E-10	-2.7346E-08	1.1649E-06	4.3539E-07
6.4053E-09	1.8260E-08	-5.9115E-08	3.4034E-07
2.3961E-08	2.0524E-08	8.9411E-07	2.0810E-06
4.0009E-09	-1.7163E-09	1.8001E-06	2.1580E-07
1.4091E-08	7.3391E-09	1.2623E-07	8.3726E-08
4.1842E-08	-1.5564E-08	-1.6503E-07	1.3361E-06
4.1214E-08	1.1509E-08	1.1479E-06	1.7748E-06
-3.9456E-09	-7.2009E-08	9.0026E-07	6.8757E-07
-1.5723E-08	-1.9133E-08	9.3046E-07	1.5949E-06
-5.7777E-08	-9.4080E-09	1.4792E-06	5.7734E-07
-3.2543E-08	5.2739E-09	7.1654E-07	6.9080E-07
-1.3299E-08	5.8026E-09	5.4152E-07	7.2168E-07
-2.6453E-08	5.2354E-08	9.0645E-07	1.7525E-06
-1.1564E-08	5.9649E-08	1.8938E-06	1.4832E-07
7.0758E-09	5.1370E-08	-1.8367E-07	3.0367E-07
4.5804E-08	1.2427E-08	8.5958E-07	1.4382E-06
2.1187E-08	1.7171E-08	8.9844E-07	5.9988E-07
8.3014E-08	-8.8452E-09	6.3357E-07	5.1403E-07
5.1750E-08	-1.8416E-08	-3.4167E-07	8.1583E-07
3.2515E-08	-4.0697E-08	5.0272E-07	2.3305E-06
3.3183E-09	-2.4680E-08	1.6757E-06	1.2408E-06
5.6593E-08	2.3558E-08	1.0675E-06	7.6605E-07
7.3404E-09	-1.0406E-08	8.0493E-07	4.9009E-07
2.1872E-08	-3.0814E-08	1.9568E-08	1.2870E-06
2.4108E-08	-2.2147E-08	1.3866E-06	1.6432E-06
2.9158E-08	-5.2208E-08	7.7509E-07	7.0093E-07
3.9797E-08	-6.2661E-08	1.2325E-06	1.6178E-06
3.8154E-08	-2.7575E-08	1.2538E-06	1.6799E-07
2.1230E-08	-5.3819E-09	2.9137E-07	1.2048E-06
1.4274E-08	-6.2420E-08	1.2655E-06	9.2616E-07
-1.6163E-08	-5.6172E-08	4.3319E-07	8.5686E-07
-1.6046E-08	-6.1959E-08	8.5771E-07	1.4712E-06
-4.5402E-08	-1.6203E-08	1.4744E-06	1.1891E-06
-7.7154E-08	-1.5923E-08	1.1664E-06	3.0731E-07
-6.4096E-08	3.8113E-08	7.5406E-07	7.8866E-07
-5.0461E-08	3.9676E-08	5.6506E-07	2.9162E-08
-1.4348E-08	1.2221E-08	-6.0391E-07	1.6611E-06
3.2158E-08	1.7392E-08	1.6569E-06	1.8701E-06
-7.2885E-09	1.5999E-08	8.8213E-07	5.5967E-07
-1.1699E-08	6.4445E-09	7.8420E-07	1.1477E-06
1.9619E-08	2.1839E-08	7.1889E-07	1.1242E-06
-1.3384E-09	-5.6224E-09	1.1637E-06	1.1953E-06
9.1567E-09	-6.2681E-09	9.4918E-07	7.2646E-07
-5.7790E-09	-1.1070E-09	6.3446E-07	7.1431E-07
3.1756E-08	3.6372E-08	3.5963E-07	1.2724E-06
-4.0190E-09	-2.2842E-09	8.3371E-07	1.0842E-06
-2.5741E-08	-1.9183E-08	2.1281E-07	1.7865E-06
-2.0808E-08	-1.7114E-08	1.9769E-06	1.6825E-06
-3.3743E-08	-1.4826E-08	8.6907E-07	7.3954E-07
-3.5727E-09	-9.3690E-09	1.9043E-06	1.2003E-06
1.0657E-08	1.1138E-08	3.3012E-07	-3.7980E-07
