jMRUI Data Textfile

Filename: Export_to_jmrui.txt

PointsInDataset: 2048
DatasetsInFile: 1
SamplingInterval: 0.250000
ZeroOrderPhase: 0E0
BeginTime: 0E0
TransmitterFrequency: 1.2326E8
MagneticField: 2.8936E0
TypeOfNucleus:  
NameOfPatient:  
DateOfExperiment:  
Spectrometer:  
AdditionalInfo: 
SignalNames:  


Signal and FFT
sig(real)	sig(imag)	fft(real)	fft(imag)
Signal 1 out of 1 in file
1.5162E-06	6.4920E-07	2.0769E-06	1.1449E-06
6.2861E-07	9.4956E-08	1.0428E-06	-8.5264E-07
4.0601E-07	-1.7217E-07	1.9731E-07	6.0185E-07
2.8086E-07	-2.9801E-07	7.5982E-07	3.2169E-07
-1.6317E-08	-3.9299E-07	6.8529E-07	1.1680E-06
-2.3784E-07	-2.6881E-07	1.8381E-06	-6.5080E-08
-3.1850E-07	-1.2825E-07	-1.6793E-07	-7.1110E-10
-2.2913E-07	3.0857E-08	1.3096E-06	1.0701E-06
-7.8266E-08	7.8038E-08	4.3169E-07	-5.1345E-07
5.6312E-08	6.7342E-08	-2.3766E-08	1.5312E-06
1.0227E-07	-4.4473E-08	1.5915E-06	1.0767E-06
1.2155E-07	-1.3558E-07	1.3870E-06	4.8970E-07
3.8053E-08	-2.6028E-07	1.0875E-06	-5.0060E-09
-5.5652E-08	-2.2298E-07	7.0720E-07	7.0356E-07
-1.7053E-07	-1.4446E-07	1.4453E-06	7.8392E-08
-1.4740E-07	-2.4921E-08	-2.0159E-08	1.6033E-07
-1.4984E-07	-2.0630E-08	1.1660E-06	1.5855E-06
-1.0458E-07	3.3409E-08	1.8632E-06	-3.5373E-07
-7.4969E-08	2.6853E-08	-2.1435E-07	-2.4240E-08
-6.5500E-08	-4.1544E-08	1.1131E-06	1.3175E-06
-1.0806E-07	-4.8945E-08	9.0207E-07	-3.0424E-07
-9.0917E-08	-8.2575E-08	2.0146E-07	1.2189E-06
-1.8460E-07	-3.5302E-08	1.5919E-06	5.3739E-07
-1.2808E-07	2.2382E-08	4.8296E-07	3.5295E-07
-8.1541E-08	4.2357E-08	1.0163E-06	8.4928E-07
-3.1576E-08	6.3110E-08	1.1938E-06	5.1460E-07
-1.0966E-08	3.1835E-08	8.1774E-07	-9.6887E-08
2.2319E-08	1.5710E-08	2.6184E-07	9.8512E-07
-1.9208E-08	-7.7745E-08	1.3816E-06	3.2881E-07
-1.0539E-07	-8.8749E-08	-2.0826E-07	6.3931E-07
-1.4848E-07	-6.9231E-08	1.5413E-06	1.4123E-06
-1.6313E-07	3.3057E-09	6.0576E-07	-6.1454E-08
-1.3736E-07	6.5797E-08	5.8355E-07	1.4926E-06
-1.1775E-07	1.2721E-07	1.2545E-06	6.9194E-07
-5.2075E-08	1.4559E-07	7.4165E-07	1.2435E-06
5.1606E-09	1.3611E-07	2.0582E-06	1.2157E-06
4.3036E-08	8.6722E-08	1.6342E-06	-3.6271E-07
8.7705E-09	5.9635E-08	5.4208E-07	5.0597E-07
2.3546E-08	3.0024E-08	1.5217E-06	2.7756E-07
3.9673E-08	3.7943E-10	2.3304E-07	4.6197E-08
2.3246E-08	2.0683E-08	8.8638E-07	8.5861E-07
4.3483E-08	6.9809E-08	2.4201E-07	4.9161E-07
5.8328E-08	4.4681E-08	1.1507E-06	1.6632E-06
1.3250E-07	8.9538E-09	1.2868E-06	9.6522E-08
1.0224E-07	-6.6779E-08	4.0859E-07	1.1250E-06
8.6997E-08	-1.0605E-07	1.3397E-06	1.0426E-06
3.5799E-08	-5.6102E-08	1.2450E-06	1.1299E-06
-2.8252E-08	-7.7896E-08	2.0129E-06	3.8032E-07
-7.7427E-09	-2.5850E-08	4.5050E-07	-9.2989E-08
4.6445E-08	1.1606E-08	9.1542E-07	1.6188E-06
3.5637E-09	-3.0346E-08	2.0195E-06	3.9680E-07
3.3476E-08	-4.4432E-08	9.3983E-07	2.2827E-07
4.3901E-08	-9.1657E-08	1.2609E-06	3.6022E-07
4.5628E-08	-1.1121E-07	6.3046E-07	2.8280E-07
-2.0825E-08	-9.6703E-08	7.9194E-07	8.1241E-07
-2.4597E-08	-5.3507E-08	9.7881E-07	1.1306E-06
-7.0815E-08	-6.1595E-08	1.9103E-06	6.6986E-07
-7.3600E-08	-6.2460E-08	1.0580E-06	4.8265E-08
-6.9116E-08	-1.4501E-08	1.3871E-06	3.0321E-07
-5.2077E-08	2.7849E-08	4.4593E-07	-3.5823E-07
7.8830E-09	6.4937E-08	2.0858E-07	7.2509E-07
2.5652E-08	2.5140E-08	-5.0143E-09	9.5801E-07
3.8054E-08	-3.6307E-08	9.9371E-07	2.3273E-06
2.3982E-08	-9.8378E-08	2.2187E-06	9.7915E-07
-1.7000E-08	-9.8444E-08	1.6082E-06	3.5355E-07
-6.2488E-08	-9.8542E-08	8.7153E-07	2.2356E-07
-1.3453E-07	-4.7729E-08	1.0378E-06	1.3260E-06
-1.2312E-07	-3.5323E-08	1.6490E-06	5.9252E-07
-1.2982E-07	3.2127E-08	1.3597E-06	1.0938E-06
-9.0726E-08	-2.0572E-09	2.3119E-06	2.5033E-07
-9.6056E-08	6.6256E-08	1.0425E-06	-3.8339E-08
-8.0226E-08	2.9590E-08	1.7098E-06	5.8370E-07
-2.8262E-08	6.6495E-08	1.5468E-06	-4.5020E-07
3.8426E-09	8.1742E-08	9.1831E-07	-9.0262E-08
1.8749E-08	3.2128E-08	9.6448E-07	-3.5462E-07
1.7252E-08	3.5901E-08	-7.5929E-08	2.4828E-07
3.3385E-08	2.6094E-08	1.3264E-06	1.1743E-06
3.3362E-08	-2.6187E-08	1.2029E-06	-4.4105E-07
-4.7538E-10	-2.3645E-08	5.8578E-07	4.3214E-07
-4.4515E-08	-4.9049E-08	7.5968E-07	-2.8609E-07
-4.3158E-08	-3.2550E-08	1.4575E-07	9.1772E-07
-1.1140E-07	6.2449E-08	1.4408E-06	-1.9633E-07
-6.7994E-08	4.2099E-08	-9.5431E-07	8.7472E-08
3.4769E-08	7.6534E-08	6.2733E-07	1.6774E-06
3.5725E-08	7.2986E-08	4.1118E-07	6.8398E-07
6.2893E-08	8.5241E-08	9.0359E-07	1.4548E-06
1.0531E-07	3.6230E-08	6.3040E-07	6.1554E-07
7.2967E-08	-2.0822E-08	7.5116E-07	1.9046E-06
6.6691E-08	-5.0826E-08	2.0442E-06	1.1275E-06
1.8746E-08	-4.4942E-08	1.6954E-06	1.2034E-07
-3.4841E-08	-4.1367E-08	5.0960E-07	-9.8514E-08
-5.6559E-08	-2.0835E-08	4.1415E-07	1.3484E-06
-2.4449E-08	5.1403E-08	1.7442E-06	1.1138E-06
-2.3191E-08	4.9600E-08	1.5797E-06	-7.2719E-08
3.1602E-08	1.6769E-08	3.4617E-07	-3.9722E-08
4.0753E-08	1.3702E-08	5.5029E-07	8.3833E-07
4.3745E-08	3.9081E-08	4.5377E-07	6.2482E-07
2.1366E-08	3.0530E-09	6.7283E-07	1.3547E-06
6.9899E-09	-3.4942E-09	1.0280E-06	1.0054E-06
2.8915E-08	-1.8885E-08	1.3284E-06	1.1167E-06
-2.1646E-08	-5.4992E-08	9.6491E-07	3.8377E-07
-6.6595E-10	-3.2190E-08	1.0722E-06	1.4215E-06
2.2895E-09	-3.3377E-08	1.5818E-06	-1.1409E-08
6.6443E-09	-2.7580E-08	-3.5840E-08	8.8092E-07
-2.6935E-08	-4.5336E-08	1.4733E-06	1.4700E-06
-9.7589E-09	-4.4305E-08	1.1670E-06	6.6950E-07
-3.9152E-08	-4.4469E-08	1.4198E-06	1.0999E-06
-2.7322E-08	1.2555E-08	1.6541E-06	1.5497E-07
-4.1954E-08	-1.5105E-08	3.3701E-07	3.0744E-07
-2.3112E-08	1.3569E-08	1.2416E-06	1.3272E-06
-5.6081E-09	3.1267E-09	8.9605E-07	8.9120E-08
-1.4545E-08	3.6202E-08	7.1657E-07	1.7704E-06
1.3124E-08	-1.5551E-08	1.9835E-06	4.7057E-07
-7.6192E-09	-1.2515E-08	9.1605E-07	9.3162E-07
-1.2528E-08	-5.3203E-08	2.0125E-06	9.4740E-08
5.7306E-10	-5.3973E-08	1.3949E-07	2.8898E-07
-4.0087E-08	9.2616E-09	1.6238E-06	1.0373E-06
-7.3340E-08	2.0211E-08	8.6676E-07	-2.3265E-07
-3.1301E-08	4.6097E-08	3.0607E-07	5.7675E-07
-1.4333E-08	6.6105E-08	4.4147E-07	1.1308E-06
-3.6458E-09	6.1968E-08	9.3347E-07	1.0142E-06
2.2334E-08	-8.5422E-09	5.6514E-07	1.4541E-06
3.5421E-08	1.1624E-08	1.6861E-06	1.5854E-06
2.5824E-08	-2.5908E-08	1.9335E-06	1.0739E-06
2.6461E-08	-1.3130E-08	2.0085E-06	-4.1859E-07
8.2623E-09	-2.1076E-08	-3.9877E-07	4.8150E-07
1.1844E-08	-1.3091E-08	1.8090E-06	1.7600E-06
-2.5739E-08	-1.8771E-08	1.0427E-06	1.3709E-07
-5.6756E-08	-4.1284E-09	1.3443E-06	1.3471E-06
-3.4545E-08	3.8973E-08	1.3417E-06	3.2543E-07
-1.6795E-08	6.0130E-08	1.3119E-06	1.0029E-06
1.2701E-08	2.5535E-08	1.3822E-06	2.7561E-07
2.7999E-08	-4.9644E-10	1.0217E-06	6.0253E-07
3.9539E-08	1.9970E-08	8.3025E-07	7.5601E-07
5.8981E-08	7.9879E-09	1.5780E-06	1.1152E-06
6.8103E-08	1.6743E-08	1.0007E-06	2.8144E-07
5.6139E-08	1.4379E-09	1.4119E-06	1.7045E-06
4.5690E-08	-2.1432E-08	2.4342E-06	-7.1588E-09
1.8646E-08	-9.1775E-09	7.8878E-07	5.2917E-08
2.8432E-08	-3.6516E-08	1.5150E-06	6.2332E-07
-9.6438E-09	-6.5822E-08	1.1392E-06	-1.2976E-07
-2.3231E-08	-3.8329E-08	8.5258E-07	6.2995E-07
-4.3865E-08	-1.9179E-08	1.3304E-06	5.7803E-09
9.8529E-10	-4.3554E-08	5.2376E-08	6.2942E-07
-2.4417E-08	-3.0480E-08	1.8673E-06	1.2292E-06
-1.1144E-08	-2.8675E-08	8.6832E-07	-3.9008E-07
-8.9854E-09	-2.9881E-09	8.7176E-07	1.1480E-06
-2.4861E-08	-2.9373E-08	1.1597E-06	1.6224E-07
-1.4808E-08	3.1883E-09	1.1773E-06	9.7359E-07
-4.5605E-08	3.9305E-09	1.1078E-06	-4.2002E-07
-4.3995E-08	1.1386E-08	2.8665E-07	1.3265E-06
-3.8667E-08	3.4698E-08	1.9921E-06	1.3604E-07
-3.7183E-08	1.9091E-08	-1.3620E-08	2.4694E-07
9.6958E-10	-8.3928E-09	1.2435E-06	1.0113E-06
-1.0740E-09	4.1244E-08	7.4924E-07	5.7365E-07
-4.1153E-08	3.0569E-08	1.5109E-06	5.6701E-07
8.5095E-09	5.3621E-09	2.0927E-07	1.4938E-07
1.7216E-08	1.0009E-08	1.2131E-06	1.5403E-06
3.0783E-08	2.7023E-08	1.3907E-06	-5.9102E-08
1.3794E-08	3.8964E-08	6.1263E-07	6.5152E-07
2.6589E-08	-2.5114E-08	1.0830E-06	3.4441E-07
1.1444E-08	2.3762E-08	3.1476E-07	3.5766E-07
3.4656E-08	1.3456E-08	2.3968E-07	1.3694E-06
5.4048E-09	2.0777E-09	1.6945E-06	1.6364E-06
-6.3952E-09	2.3266E-08	1.6903E-06	1.3577E-07
-2.9364E-08	-5.8113E-08	1.0030E-06	3.0530E-07
-3.8150E-08	-8.8956E-09	5.9779E-07	2.2406E-07
-4.3634E-08	1.6944E-09	8.3718E-07	1.1411E-06
-2.2503E-08	4.5170E-08	1.0240E-06	2.3672E-07
-1.7282E-08	6.8140E-08	7.3844E-07	1.3678E-06
4.0304E-08	2.7282E-08	1.8821E-06	1.4209E-08
1.3569E-08	6.6378E-08	5.3573E-08	3.1744E-07
5.2938E-08	2.5452E-08	1.1427E-06	6.5549E-07
7.6787E-08	-1.5903E-08	1.1797E-07	6.4077E-07
5.1756E-08	-4.9042E-08	1.3571E-06	8.9761E-07
1.8393E-08	-1.1701E-08	-2.3948E-07	2.2113E-07
1.3185E-08	-2.7722E-09	7.0968E-07	2.3311E-06
2.9094E-08	-7.0056E-09	1.6845E-06	9.1345E-07
1.5158E-08	-5.0193E-08	1.2862E-06	1.0189E-06
-2.9535E-09	-2.2934E-08	1.6160E-06	5.2280E-07
4.7023E-08	-2.0554E-08	1.0878E-06	3.9059E-08
3.1176E-08	-5.0431E-08	2.3837E-07	6.3334E-07
3.8412E-08	-2.4021E-08	1.3263E-06	1.1854E-06
2.0990E-08	-1.6906E-08	7.8810E-07	1.8729E-07
6.6179E-08	-3.7454E-08	1.0111E-06	1.2259E-06
1.7268E-08	-9.5140E-08	1.0640E-06	-2.1662E-07
-3.2885E-08	-8.4421E-08	-3.3082E-07	1.1077E-06
-3.6719E-08	-8.7900E-08	1.1079E-06	1.5284E-06
-9.3676E-08	-2.2597E-08	9.1024E-07	1.3091E-06
-4.8469E-08	-5.0734E-08	1.8117E-06	1.3120E-06
-5.9948E-08	-3.9804E-09	1.5572E-06	5.5840E-07
-5.8148E-08	1.6339E-09	1.9769E-06	2.7668E-07
-1.7162E-08	-9.4366E-09	4.9934E-07	-1.0562E-06
-3.1011E-08	1.8792E-08	-4.9424E-07	1.0921E-06
-4.8316E-09	-1.9178E-09	7.3083E-07	9.5546E-07
1.0004E-09	1.3126E-08	1.8468E-07	1.7285E-06
1.4562E-08	4.3465E-09	2.1085E-06	1.3563E-06
3.4841E-08	1.1979E-08	7.8120E-07	1.8591E-07
-8.1426E-09	-7.1967E-09	9.7307E-07	1.0907E-06
4.6063E-08	1.1971E-08	6.8347E-07	8.2133E-07
-1.6371E-10	7.3870E-09	1.4653E-06	1.3783E-06
2.0280E-08	3.1865E-08	1.2117E-06	1.3519E-07
3.8920E-09	8.1258E-10	6.2194E-07	8.1536E-07
5.5197E-09	-6.5514E-09	7.8714E-07	8.4847E-07
-2.1889E-09	-2.6136E-08	1.0329E-06	1.0549E-06
1.7544E-08	-1.1447E-08	9.0455E-07	6.7443E-07
-2.4350E-08	-1.5532E-08	1.0116E-06	8.4647E-07
