jMRUI Data Textfile

Filename: Export_to_jmrui.txt

PointsInDataset: 2048
DatasetsInFile: 1
SamplingInterval: 0.250000
ZeroOrderPhase: 0E0
BeginTime: 0E0
TransmitterFrequency: 1.2326E8
MagneticField: 2.8936E0
TypeOfNucleus:  
NameOfPatient:  
DateOfExperiment:  
Spectrometer:  
AdditionalInfo: 
SignalNames:  


Signal and FFT
sig(real)	sig(imag)	fft(real)	fft(imag)
Signal 1 out of 1 in file
6.8976E-06	-1.2329E-06	-4.0406E-06	-5.6656E-07
1.0760E-05	-5.3354E-06	-6.3576E-06	9.2344E-07
6.3497E-06	-7.3049E-06	-4.1324E-06	3.6451E-06
2.9310E-06	-8.0751E-06	-2.7075E-06	1.5519E-06
-2.1952E-06	-7.0465E-06	-4.4250E-06	1.7919E-06
-4.9638E-06	-4.3416E-06	-3.4278E-06	3.4194E-06
-6.2662E-06	-1.0360E-06	-2.3382E-06	2.2338E-06
-4.4397E-06	1.7782E-06	-3.4351E-06	2.7143E-06
-2.0078E-06	2.7114E-06	-1.7258E-06	2.8633E-06
7.2437E-07	2.0001E-06	-2.8184E-06	1.9970E-06
1.9215E-06	5.8596E-07	-1.7196E-06	2.6358E-06
2.4301E-06	-9.7274E-07	-3.2965E-06	1.1244E-06
1.4975E-06	-1.9690E-06	-3.3899E-06	3.7630E-06
3.8999E-07	-2.4401E-06	-2.4528E-06	3.2630E-06
-1.0342E-06	-2.2896E-06	-1.4609E-06	4.2300E-06
-1.7416E-06	-1.6002E-06	-1.2122E-06	1.9345E-06
-2.2073E-06	-8.3469E-07	-2.5238E-06	3.6283E-06
-1.8631E-06	-1.6059E-07	-8.4855E-07	3.1509E-06
-1.7244E-06	1.8833E-07	-1.3446E-06	3.3002E-06
-1.3817E-06	4.7585E-07	-3.3079E-07	2.4280E-06
-1.4050E-06	7.0542E-07	-1.6125E-06	2.1440E-06
-1.1992E-06	1.0074E-06	-1.5034E-06	2.4477E-06
-1.0458E-06	1.2344E-06	-1.8769E-06	2.8253E-06
-6.1247E-07	1.2978E-06	-1.8698E-06	2.9689E-06
-1.5272E-07	1.0358E-06	-1.5684E-06	4.7017E-06
3.6299E-07	5.9813E-07	1.1791E-06	3.2398E-06
3.4379E-07	-4.4827E-08	-1.1362E-06	1.7526E-06
2.2231E-07	-5.3783E-07	-3.6893E-07	3.3728E-06
-3.1545E-07	-5.8399E-07	-4.3210E-07	1.5090E-06
-7.1793E-07	-2.1596E-07	-1.8127E-06	2.8016E-06
-1.1066E-06	3.8302E-07	-4.6117E-07	3.1390E-06
-1.0356E-06	1.0917E-06	-8.3050E-07	2.6698E-06
-7.5356E-07	1.5310E-06	-1.2811E-07	3.0694E-06
-9.8000E-08	1.7183E-06	-3.1255E-07	1.6426E-06
4.6538E-07	1.4572E-06	-1.6555E-06	2.4777E-06
9.6483E-07	9.5488E-07	-7.4205E-07	3.3462E-06
9.8006E-07	4.2113E-07	-9.9866E-09	2.9167E-06
8.9992E-07	1.0734E-07	1.5597E-07	1.7733E-06
6.5636E-07	1.1101E-09	-1.7141E-06	1.0216E-06
6.3194E-07	-3.5210E-08	-2.9982E-06	3.8216E-06
5.2772E-07	-2.4136E-08	6.8731E-07	4.9484E-06
6.9209E-07	-1.0833E-07	5.1033E-07	1.2932E-06
5.4124E-07	-3.9450E-07	-1.5382E-06	2.9143E-06
4.8342E-07	-7.0178E-07	2.6873E-08	2.6938E-06
3.3920E-08	-9.0080E-07	-1.1371E-06	2.6947E-06
-3.3443E-07	-8.3746E-07	1.0085E-07	2.6908E-06
-7.0426E-07	-5.1827E-07	-1.6498E-06	1.8529E-06
-7.3076E-07	-4.5817E-09	-1.2590E-06	3.7273E-06
-5.8005E-07	3.9991E-07	-1.2616E-06	2.9543E-06
-1.0744E-07	6.2419E-07	-1.1355E-06	4.9148E-06
1.8860E-07	5.6148E-07	7.0864E-07	3.7856E-06
4.5322E-07	1.7207E-07	-1.8772E-07	4.1166E-06
4.0138E-07	-3.0008E-07	2.1622E-06	3.6281E-06
1.0400E-07	-6.0899E-07	7.0705E-07	1.2331E-06
-4.2957E-07	-6.6632E-07	-4.4341E-07	2.0154E-06
-7.8538E-07	-3.4469E-07	-1.0932E-06	2.5333E-06
-9.7770E-07	1.0407E-07	-3.5660E-07	3.4022E-06
-7.2306E-07	6.0880E-07	-6.6461E-07	3.0741E-06
-3.4157E-07	8.1576E-07	3.6749E-07	3.9297E-06
1.6893E-07	7.0719E-07	4.7380E-08	2.3456E-06
4.2979E-07	4.1515E-07	-2.9283E-07	3.8712E-06
4.9848E-07	1.6608E-08	6.6726E-07	2.8872E-06
2.9690E-07	-2.5226E-07	1.9563E-07	3.2059E-06
-5.0063E-08	-3.0717E-07	3.3074E-07	2.1887E-06
-3.5389E-07	-1.4720E-07	-9.7906E-07	3.4214E-06
-4.3998E-07	2.0006E-07	6.3028E-07	3.7486E-06
-3.5788E-07	4.5496E-07	4.8617E-07	3.2668E-06
-4.5084E-08	5.8285E-07	9.4683E-07	2.8116E-06
1.2869E-07	4.6674E-07	1.5051E-07	2.5282E-06
2.1653E-07	2.0341E-07	1.6233E-07	2.5658E-06
1.2996E-07	-2.7019E-08	-9.2740E-07	2.9959E-06
4.3017E-08	-1.4705E-07	1.6989E-07	4.7399E-06
-2.6061E-07	-6.5762E-09	1.9992E-06	3.2897E-06
-3.8272E-07	1.5444E-07	3.0408E-07	2.0621E-06
-1.8922E-07	3.7950E-07	4.9589E-07	3.7854E-06
1.1799E-08	5.5743E-07	1.4092E-06	2.2279E-06
2.0882E-07	4.8770E-07	-1.3838E-07	2.7194E-06
4.3273E-07	2.8458E-07	1.1419E-06	2.9732E-06
5.1013E-07	5.1012E-08	2.2412E-07	2.0031E-06
2.9673E-07	-1.4841E-07	7.6081E-09	3.3376E-06
7.3594E-08	-2.2768E-07	1.5643E-06	2.6887E-06
-1.0637E-07	-5.9060E-08	-2.7699E-07	1.1049E-06
-1.8220E-07	1.4805E-07	-8.8237E-07	3.7686E-06
-6.1697E-08	3.3119E-07	9.0991E-07	2.7373E-06
1.9290E-07	3.1076E-07	-6.6720E-07	3.1144E-06
4.0600E-07	1.0845E-07	9.3046E-07	3.5729E-06
3.8960E-07	-1.1089E-07	2.5416E-07	2.7273E-06
3.7998E-07	-3.9150E-07	5.4337E-07	3.2062E-06
8.0483E-08	-5.4448E-07	3.1001E-07	2.9472E-06
-1.9489E-07	-5.3336E-07	5.7165E-07	3.2437E-06
-3.6375E-07	-2.8878E-07	7.5573E-07	3.1144E-06
-3.5686E-07	6.9650E-08	9.0446E-07	2.4480E-06
-1.9827E-07	2.8920E-07	-9.5085E-08	2.6951E-06
9.6579E-08	3.9263E-07	3.8330E-07	2.9926E-06
4.1799E-07	2.8817E-07	-6.5836E-08	3.5791E-06
5.7287E-07	8.3527E-08	1.9869E-06	3.3634E-06
4.4009E-07	-2.1841E-07	4.5075E-07	1.2437E-06
2.9143E-07	-4.4198E-07	-4.8470E-07	2.7213E-06
3.1356E-08	-5.3450E-07	-4.1419E-07	2.9929E-06
-1.1358E-07	-4.9770E-07	1.1973E-07	3.4240E-06
-3.0751E-07	-3.7009E-07	-7.7292E-07	3.2643E-06
-2.9140E-07	-2.5687E-07	8.2795E-07	5.2120E-06
-2.8096E-07	-9.1329E-08	1.3763E-06	2.1413E-06
-2.6893E-07	-1.0688E-07	-9.0724E-07	4.5023E-06
-2.2837E-07	-7.5935E-08	2.8494E-06	4.2004E-06
-1.9311E-07	-3.4311E-08	5.8460E-07	1.9640E-06
-2.5712E-07	9.8360E-09	1.0617E-06	3.9831E-06
-2.1745E-07	1.8802E-07	1.4473E-06	2.2757E-06
-9.4564E-08	1.9207E-07	7.4389E-07	2.8837E-06
7.2006E-08	1.9435E-07	7.6210E-07	1.9291E-06
1.8370E-07	1.1902E-07	-6.8997E-07	3.1013E-06
2.8606E-07	-2.8330E-08	7.1349E-07	3.8249E-06
2.4467E-07	-2.0445E-07	8.2583E-07	3.4478E-06
8.0414E-08	-3.6071E-07	1.6479E-06	3.0750E-06
-1.2501E-07	-3.0995E-07	9.0285E-07	1.7921E-06
-2.9633E-07	-1.9643E-07	-3.5022E-07	2.0973E-06
-2.6953E-07	3.6791E-09	-8.2209E-07	3.4022E-06
-2.6506E-07	1.8350E-07	4.0703E-07	3.7373E-06
-9.7695E-08	3.4088E-07	-4.1646E-07	3.2455E-06
1.1830E-07	2.5004E-07	1.4471E-07	4.9194E-06
3.1871E-07	5.8158E-08	1.4575E-06	4.0568E-06
3.3548E-07	-1.3448E-07	1.3276E-06	3.4925E-06
2.3357E-07	-3.3465E-07	5.5525E-07	2.9697E-06
1.0542E-07	-3.7155E-07	5.8341E-07	4.7774E-06
-1.1919E-07	-3.2213E-07	2.7549E-06	3.4748E-06
-2.2137E-07	-1.5347E-07	1.1062E-06	2.3866E-06
-2.7023E-07	3.7102E-08	1.4447E-06	2.7244E-06
-6.6459E-08	2.0437E-07	7.4457E-08	2.2052E-06
-8.4848E-09	2.0093E-07	6.7067E-07	3.8819E-06
5.9694E-08	1.4442E-07	1.0503E-06	2.3126E-06
1.3014E-07	4.7590E-11	-2.9149E-07	3.3919E-06
1.3647E-07	-9.2440E-08	1.2649E-06	3.6813E-06
3.5611E-08	-1.4611E-07	5.9693E-07	2.3121E-06
-1.6019E-08	-1.9099E-07	-7.4707E-07	3.5141E-06
-2.4879E-08	-9.1249E-08	6.4750E-07	5.0887E-06
3.2042E-08	-2.6854E-08	2.3241E-06	3.9946E-06
1.7492E-07	-1.3545E-08	2.1529E-06	2.4015E-06
2.1496E-07	-1.4936E-07	7.0255E-07	1.4865E-06
2.2775E-07	-2.6553E-07	-7.8371E-07	2.6138E-06
1.8616E-07	-3.6158E-07	-9.7250E-08	4.0353E-06
1.8968E-08	-3.2784E-07	9.1783E-07	3.3052E-06
-1.4680E-07	-3.0567E-07	-5.8339E-07	2.9875E-06
-2.9046E-07	-1.9137E-07	1.1683E-07	5.0813E-06
-3.0890E-07	-3.8537E-08	1.6699E-06	3.5424E-06
-1.9104E-07	3.8054E-08	8.5792E-08	3.1164E-06
-5.9015E-08	1.5480E-07	-2.0757E-09	4.2641E-06
6.4758E-08	8.3268E-08	1.2278E-06	4.9487E-06
1.7864E-07	-5.9460E-09	2.2030E-06	2.8870E-06
1.2822E-07	-1.3431E-07	-5.2090E-07	2.5915E-06
1.2478E-07	-2.6903E-07	7.2439E-08	5.1218E-06
2.8542E-08	-3.0342E-07	2.0074E-06	4.1620E-06
-1.4871E-07	-2.3602E-07	8.4497E-07	2.6355E-06
-1.3897E-07	-1.4451E-07	-9.0760E-08	4.2149E-06
-1.7360E-07	-1.9412E-08	1.4391E-06	3.8470E-06
-1.0880E-07	4.0305E-08	-2.6857E-07	3.5656E-06
-1.4845E-08	6.0784E-08	1.2052E-06	5.2998E-06
7.3799E-08	5.6790E-08	1.5292E-06	3.0673E-06
7.5885E-08	1.7835E-08	-8.8906E-08	4.1159E-06
1.0341E-07	-8.8549E-08	1.0830E-06	4.9041E-06
7.3509E-08	-1.2332E-07	1.8526E-06	4.3684E-06
3.9201E-08	-1.7933E-07	1.5277E-06	3.2328E-06
4.8903E-08	-1.4743E-07	7.3858E-07	3.8340E-06
-6.0357E-08	-1.3771E-07	1.1519E-06	3.4503E-06
-1.9225E-08	-1.4792E-07	-1.6087E-07	3.9351E-06
-7.4493E-08	-1.0962E-07	9.4038E-07	5.1375E-06
-1.2237E-07	-5.8388E-08	1.4984E-06	4.4339E-06
-9.8136E-08	-1.9149E-08	1.5729E-06	4.0623E-06
-8.0967E-08	3.5406E-08	8.3899E-07	3.7768E-06
-2.9699E-08	9.0584E-08	7.2894E-07	4.6662E-06
-3.3909E-08	7.2505E-08	1.1680E-06	5.0231E-06
3.8711E-08	8.7697E-08	2.1822E-06	5.2637E-06
1.7616E-07	6.5381E-08	2.8872E-06	3.9140E-06
1.2376E-07	-5.1582E-09	1.7058E-06	3.1327E-06
2.1857E-07	-7.1377E-08	1.4858E-06	4.0432E-06
1.0334E-07	-1.5795E-07	1.9048E-06	2.9958E-06
8.7652E-08	-1.1190E-07	-2.7122E-07	3.7503E-06
3.6352E-08	-1.7064E-07	1.7683E-06	5.7844E-06
3.0497E-08	-1.2089E-07	2.6753E-06	3.6960E-06
9.9980E-09	-1.1587E-07	1.8195E-06	3.2868E-06
3.5018E-08	-7.5457E-08	6.7272E-07	3.2825E-06
5.3812E-08	-9.9072E-08	1.1272E-06	5.0081E-06
7.1097E-08	-9.9810E-08	2.0607E-06	3.9446E-06
3.9183E-08	-1.4801E-07	1.4904E-06	4.2927E-06
5.5180E-08	-1.9068E-07	2.1388E-06	4.0661E-06
-2.9641E-08	-1.6778E-07	2.3236E-06	3.7748E-06
-2.8637E-08	-8.9666E-08	1.5512E-06	2.3167E-06
-7.9720E-08	-1.2615E-07	-2.0008E-07	4.6574E-06
-4.8841E-08	-9.2811E-08	3.4430E-06	4.9472E-06
-2.1125E-08	-9.0220E-08	1.6761E-06	1.4282E-06
-1.1039E-08	-1.3837E-07	-3.4838E-07	4.2603E-06
-3.0921E-08	-1.2863E-07	1.8874E-06	4.2687E-06
-3.1970E-08	-5.8383E-08	5.8462E-07	3.8838E-06
-1.2053E-07	-9.3094E-08	1.9741E-06	4.6712E-06
-1.0345E-07	-5.0767E-08	6.5213E-07	3.1948E-06
-5.4334E-08	-8.3507E-09	1.1091E-06	6.2215E-06
-8.5242E-08	2.3035E-08	3.6501E-06	3.4798E-06
3.7293E-08	3.7755E-09	2.2437E-07	3.0742E-06
2.4606E-08	-1.3562E-08	1.5647E-06	5.5026E-06
3.1329E-08	5.8382E-09	2.7592E-06	3.8703E-06
5.5925E-08	-2.9598E-08	1.7698E-06	3.1532E-06
-3.9809E-10	-9.1618E-08	8.8523E-07	3.3993E-06
7.1901E-09	-7.9303E-08	8.1929E-07	4.6867E-06
-5.5813E-08	7.5807E-09	2.3821E-06	4.2017E-06
-1.4455E-08	-4.5218E-08	6.1035E-07	2.9179E-06
-2.6235E-08	1.3368E-08	1.1143E-07	5.6783E-06
-2.9477E-09	8.9454E-09	2.8164E-06	5.6618E-06
