jMRUI Data Textfile

Filename: Export_to_jmrui.txt

PointsInDataset: 2048
DatasetsInFile: 1
SamplingInterval: 0.250000
ZeroOrderPhase: 0E0
BeginTime: 0E0
TransmitterFrequency: 1.2326E8
MagneticField: 2.8936E0
TypeOfNucleus:  
NameOfPatient:  
DateOfExperiment:  
Spectrometer:  
AdditionalInfo: 
SignalNames:  


Signal and FFT
sig(real)	sig(imag)	fft(real)	fft(imag)
Signal 1 out of 1 in file
5.9525E-06	-1.0627E-06	-5.1621E-06	1.0783E-06
8.3565E-06	-4.0992E-06	-2.6751E-06	2.3110E-06
4.9246E-06	-5.8661E-06	-2.1462E-06	2.0845E-06
2.2489E-06	-6.5230E-06	-1.8716E-06	1.1140E-06
-1.6078E-06	-5.6368E-06	-2.6985E-06	2.5084E-06
-3.5418E-06	-3.5443E-06	-6.2849E-07	1.8291E-06
-4.6213E-06	-8.1994E-07	-2.4831E-06	1.5104E-06
-3.3324E-06	1.2176E-06	-8.5778E-07	2.8034E-06
-1.5771E-06	2.0536E-06	-7.8661E-07	1.0639E-06
6.2120E-07	1.5651E-06	-1.7211E-06	1.0794E-06
1.5908E-06	5.1493E-07	-2.7070E-06	1.9360E-06
1.9786E-06	-7.2960E-07	-1.3062E-06	3.5410E-06
1.2268E-06	-1.5796E-06	-2.7388E-07	1.8910E-06
4.6083E-07	-1.9619E-06	-1.7551E-06	2.1329E-06
-5.9986E-07	-1.8026E-06	-4.8543E-07	3.2678E-06
-1.1998E-06	-1.3539E-06	1.1849E-07	1.8977E-06
-1.5829E-06	-7.8024E-07	-4.2235E-07	1.6225E-06
-1.3902E-06	-2.2249E-07	-1.2342E-06	1.3306E-06
-1.3298E-06	6.8719E-08	-1.2487E-06	3.0509E-06
-1.0557E-06	2.0918E-07	2.3909E-07	1.8379E-06
-1.0675E-06	5.0248E-07	-1.6559E-06	1.9448E-06
-9.6690E-07	7.6504E-07	-3.8629E-07	3.0301E-06
-8.7103E-07	9.1594E-07	-7.6364E-07	2.3694E-06
-5.1057E-07	1.0578E-06	-1.0843E-08	3.4561E-06
-1.8222E-07	9.4481E-07	8.1287E-07	2.1384E-06
3.2843E-07	5.7384E-07	-1.6479E-07	1.7445E-06
3.8786E-07	9.4873E-08	-4.4709E-07	2.5549E-06
2.4117E-07	-2.8306E-07	7.5291E-07	2.8210E-06
-9.6764E-08	-4.1051E-07	8.2318E-07	1.1945E-06
-4.5343E-07	-1.5234E-07	-9.0242E-07	1.4717E-06
-8.4443E-07	2.7077E-07	-2.5507E-07	3.0636E-06
-7.3525E-07	8.0786E-07	1.0668E-06	2.1363E-06
-5.8065E-07	1.2331E-06	6.5295E-08	1.2468E-06
-1.7684E-08	1.3142E-06	-2.0731E-07	2.0867E-06
3.8796E-07	1.1832E-06	2.7359E-07	1.5325E-06
7.8750E-07	7.5565E-07	-1.1198E-06	1.6402E-06
8.5439E-07	3.2174E-07	-2.6440E-07	3.2304E-06
7.1866E-07	4.4072E-08	4.2662E-07	1.9339E-06
6.0804E-07	-7.9648E-08	-5.0471E-07	2.5556E-06
4.4497E-07	-5.9226E-08	5.6150E-07	2.5371E-06
3.7411E-07	-1.0002E-07	-1.1112E-07	2.1855E-06
3.8802E-07	-1.1048E-07	4.7300E-07	2.6293E-06
4.3110E-07	-2.7079E-07	4.3155E-08	1.6422E-06
3.8168E-07	-5.0295E-07	-9.4858E-07	2.9299E-06
6.4278E-08	-6.1180E-07	6.0467E-07	3.7389E-06
-1.8431E-07	-6.4077E-07	8.9599E-07	2.7882E-06
-5.0999E-07	-4.5032E-07	1.1052E-06	3.1826E-06
-5.8761E-07	-8.8560E-08	1.7489E-06	2.1773E-06
-4.2430E-07	2.1712E-07	1.0001E-06	1.8535E-06
-9.3197E-08	4.1389E-07	1.0261E-06	1.6469E-06
8.5734E-08	3.8767E-07	3.8546E-09	1.5412E-06
2.9192E-07	1.1536E-07	-9.6111E-08	3.0169E-06
2.5964E-07	-2.0052E-07	1.6991E-06	2.9395E-06
1.2459E-08	-3.7748E-07	9.5152E-07	1.1836E-06
-3.5053E-07	-3.9070E-07	-3.1997E-08	2.7205E-06
-6.0825E-07	-2.2229E-07	1.5738E-06	2.7027E-06
-7.2358E-07	6.1835E-08	1.2717E-06	1.6760E-06
-4.6829E-07	3.9679E-07	4.8770E-07	1.6188E-06
-2.6439E-07	5.4941E-07	3.7752E-07	2.7711E-06
4.7176E-08	4.0604E-07	1.6570E-06	2.4387E-06
2.7002E-07	1.3128E-07	1.1744E-06	1.7451E-06
3.0745E-07	-1.1997E-08	1.2097E-06	1.8905E-06
2.2530E-08	-1.9021E-07	1.3060E-06	1.3747E-06
-2.1890E-07	-2.7898E-07	2.2289E-07	8.5915E-07
-3.5570E-07	-9.9019E-08	-2.6511E-07	2.4984E-06
-4.4022E-07	2.9607E-07	1.0880E-06	2.1973E-06
-3.3894E-07	4.7999E-07	3.3079E-07	1.9353E-06
-9.2582E-08	5.6783E-07	4.8284E-07	2.1053E-06
4.7532E-08	4.4030E-07	1.0293E-07	3.1353E-06
2.0434E-07	2.3534E-07	2.7201E-06	2.6853E-06
1.5033E-07	1.9675E-08	5.7449E-07	-8.9657E-08
-2.5984E-08	-1.0771E-07	-7.0202E-07	2.7846E-06
-1.8981E-07	-1.3522E-07	1.0063E-06	2.2407E-06
-2.9550E-07	8.1308E-08	-3.9815E-07	2.7643E-06
-2.4986E-07	2.8877E-07	1.8513E-06	3.7109E-06
-2.3533E-08	4.3394E-07	1.5434E-06	1.2895E-06
1.4879E-07	4.1911E-07	3.3842E-07	2.4912E-06
2.8729E-07	2.3669E-07	1.1123E-06	2.4292E-06
3.0273E-07	8.8679E-08	1.0973E-06	3.0191E-06
1.6979E-07	-5.7930E-08	2.5328E-06	1.7828E-06
1.6066E-08	-7.5014E-08	3.2442E-07	7.4752E-07
-1.2853E-07	2.4310E-08	1.6841E-07	2.6333E-06
-1.5534E-07	1.4184E-07	9.5788E-07	2.3645E-06
-3.2658E-08	2.5295E-07	6.8662E-07	2.4312E-06
1.4016E-07	2.9097E-07	1.1450E-06	2.6492E-06
3.1725E-07	1.8044E-07	1.2052E-06	1.9088E-06
3.3208E-07	-6.2477E-08	6.7233E-08	2.1203E-06
2.3805E-07	-2.7074E-07	3.7679E-07	3.8738E-06
6.6725E-08	-4.4475E-07	2.9554E-06	3.4617E-06
-1.6111E-07	-3.3740E-07	1.7458E-06	4.0290E-07
-3.5041E-07	-1.4671E-07	-6.6423E-07	2.9836E-06
-2.6813E-07	5.9700E-08	2.5658E-06	3.8183E-06
-1.1266E-07	2.6038E-07	2.2082E-06	1.4397E-06
1.2075E-07	3.0897E-07	1.3102E-06	1.7711E-06
2.3201E-07	2.7602E-07	9.5864E-07	1.8012E-06
4.2324E-07	3.9082E-08	8.3196E-07	2.6290E-06
3.8374E-07	-1.1099E-07	1.8621E-06	2.7372E-06
2.2374E-07	-3.6259E-07	1.8534E-06	1.5990E-06
-6.3671E-09	-4.1611E-07	9.4139E-07	1.9226E-06
-1.4614E-07	-3.8840E-07	1.4702E-06	2.2638E-06
-2.6120E-07	-3.2714E-07	1.5784E-06	1.7923E-06
-2.8401E-07	-2.0529E-07	9.6371E-07	1.2137E-06
-2.7760E-07	-9.1127E-08	-8.0778E-08	2.3825E-06
-2.5762E-07	1.5901E-08	1.3731E-06	3.1483E-06
-2.5366E-07	2.3245E-08	1.4824E-06	2.2773E-06
-2.3249E-07	6.8840E-08	1.6490E-06	2.3787E-06
-1.7802E-07	1.3151E-07	1.3815E-06	1.4325E-06
-1.0660E-07	1.9193E-07	4.1036E-08	2.2979E-06
-3.1541E-08	2.1922E-07	1.5494E-06	3.6077E-06
8.7959E-08	2.2975E-07	1.9946E-06	1.7228E-06
1.3460E-07	1.2922E-07	6.3816E-07	2.8042E-06
2.1788E-07	-7.7854E-08	2.5949E-06	2.7295E-06
1.8565E-07	-1.5907E-07	1.3298E-06	1.5057E-06
7.7360E-08	-2.2570E-07	1.5885E-06	2.8351E-06
-1.2427E-07	-2.2059E-07	2.5421E-06	1.9042E-06
-2.3591E-07	-1.1296E-07	1.9039E-06	5.8574E-07
-3.0996E-07	5.5493E-08	-3.0761E-07	1.1118E-06
-2.2590E-07	1.4742E-07	8.0303E-07	3.4312E-06
-7.2534E-08	2.1556E-07	1.9974E-06	1.8823E-06
1.1038E-07	1.8229E-07	1.0684E-06	1.9830E-06
1.9355E-07	8.4689E-08	1.4719E-06	1.5080E-06
2.1926E-07	-4.6867E-08	-1.8365E-08	1.6983E-06
1.8544E-07	-1.7711E-07	5.3816E-07	3.0026E-06
4.0848E-08	-2.5360E-07	8.9200E-07	3.1801E-06
-7.9542E-08	-2.3688E-07	2.4876E-06	3.2835E-06
-1.4817E-07	-1.2441E-07	2.0155E-06	1.0489E-06
-9.8784E-08	3.1167E-08	8.2487E-07	2.0900E-06
-7.5356E-08	1.6612E-07	1.1202E-06	1.5209E-06
-3.8886E-08	1.0618E-07	-2.7913E-08	2.8988E-06
6.0939E-08	1.0426E-07	2.1815E-06	2.9373E-06
1.0707E-07	-3.7488E-08	8.6850E-07	1.6147E-06
7.3764E-08	-6.4414E-08	1.2457E-06	3.0275E-06
8.0245E-08	-1.4269E-07	1.5200E-06	1.3750E-06
-1.1378E-08	-1.3731E-07	-4.9391E-07	2.5186E-06
1.7526E-08	-7.1857E-08	1.4553E-06	3.7279E-06
5.8426E-08	-9.5758E-08	6.7323E-07	2.2817E-06
1.1790E-07	-2.8863E-08	1.1208E-06	5.0039E-06
1.6665E-07	-1.3643E-07	3.8366E-06	2.6611E-06
1.8777E-07	-2.0757E-07	1.5391E-06	1.9509E-06
9.4453E-08	-2.4232E-07	2.6106E-06	2.3201E-06
-3.2471E-08	-2.8366E-07	1.4735E-06	1.2106E-06
-1.0947E-07	-1.8959E-07	1.0548E-06	2.0667E-06
-2.3485E-07	-1.6660E-07	1.2243E-06	2.4018E-06
-2.3550E-07	-2.3543E-08	1.5516E-06	1.8408E-06
-1.7875E-07	2.2195E-08	5.7441E-07	2.1541E-06
-3.4144E-08	1.0219E-07	9.3728E-07	2.0243E-06
7.2254E-08	1.0626E-07	-6.5539E-07	3.4246E-06
1.1922E-07	-5.7214E-08	2.7283E-06	4.4862E-06
1.6505E-07	-8.0590E-08	1.7625E-06	1.4569E-06
8.3946E-08	-1.7045E-07	8.5676E-07	3.0179E-06
-1.6247E-08	-2.1875E-07	7.6428E-07	3.1349E-06
-6.2741E-08	-2.0027E-07	2.3386E-06	4.5257E-06
-1.3506E-07	-1.1478E-07	2.6967E-06	1.8311E-06
-9.8306E-08	-2.9304E-08	1.1167E-06	3.3127E-06
-1.1650E-07	1.9019E-08	2.8245E-06	3.1825E-06
-2.9748E-08	3.9231E-08	2.7292E-06	2.6629E-06
2.9760E-08	3.8985E-08	2.9425E-06	1.5690E-06
2.7269E-08	5.6472E-08	1.7664E-06	1.4457E-06
3.2851E-08	-4.7343E-09	1.3016E-06	1.3571E-06
9.6494E-08	-6.4709E-08	5.8923E-07	2.8796E-06
8.7557E-08	-8.6736E-08	2.4788E-06	2.5509E-06
-8.4464E-10	-1.3758E-07	8.1111E-07	1.8962E-06
1.8311E-08	-8.5714E-08	1.9424E-06	3.6091E-06
-7.2025E-08	-1.2164E-07	2.7207E-06	1.7580E-06
-1.0156E-07	-1.4917E-07	1.4264E-06	1.4866E-06
-7.1109E-08	-4.7634E-08	7.4903E-07	2.0168E-06
-5.7510E-08	1.8567E-08	1.1271E-06	3.2741E-06
-7.3309E-08	-1.1023E-09	2.4230E-06	2.5197E-06
-4.3340E-08	6.6777E-08	1.1500E-06	1.7126E-06
3.5674E-08	7.8431E-08	9.8934E-07	3.4502E-06
6.1560E-08	4.6238E-08	2.9744E-06	3.1602E-06
8.2806E-08	1.8456E-08	2.7155E-06	1.3555E-06
1.4302E-07	-2.6941E-09	1.5154E-06	1.1924E-06
1.1997E-07	-4.4231E-08	1.2122E-06	1.5976E-06
1.6168E-07	-1.3855E-07	8.4505E-07	1.2830E-06
1.2502E-07	-1.6072E-07	-2.3285E-07	2.0995E-06
8.4699E-08	-1.4180E-07	1.7885E-07	3.1648E-06
6.5639E-08	-6.8176E-08	8.4222E-07	4.0111E-06
3.6659E-08	-1.2690E-07	2.4491E-06	2.8844E-06
-3.5757E-09	-9.2551E-08	1.9534E-07	2.5299E-06
3.4050E-08	-1.2125E-07	2.3753E-06	4.6540E-06
2.9219E-08	-1.8365E-07	2.4306E-06	1.4680E-06
5.6074E-08	-1.1257E-07	1.1246E-06	3.2674E-06
3.2613E-08	-1.1986E-07	2.4368E-06	1.9856E-06
2.5893E-09	-1.7887E-07	7.5039E-07	2.4900E-06
3.1970E-08	-1.6682E-07	1.8986E-06	2.5574E-06
-3.8766E-08	-1.3949E-07	6.8518E-07	2.2352E-06
-3.7178E-08	-1.2357E-07	9.8975E-07	3.5112E-06
-2.0015E-08	-8.3478E-08	2.2450E-06	3.1911E-06
-3.6548E-08	-5.9227E-08	1.3611E-06	1.6633E-06
-4.3519E-08	-1.4762E-07	3.8298E-07	3.5640E-06
-8.7702E-08	-7.6180E-08	1.9892E-06	2.9776E-06
-9.9359E-08	-8.4186E-08	3.8807E-07	3.4289E-06
-4.9172E-08	-3.4238E-08	2.7939E-06	4.5569E-06
-5.8136E-08	-3.5160E-08	2.9568E-06	1.7092E-06
-5.7833E-08	-8.6796E-09	4.9120E-07	1.9474E-06
-8.3882E-08	-1.4284E-08	8.3258E-07	4.0500E-06
8.2525E-08	1.8085E-08	2.1967E-06	3.6074E-06
2.4328E-08	-2.5336E-08	2.1461E-06	3.3838E-06
-1.1153E-08	-2.4348E-08	2.2622E-06	2.7096E-06
-1.0691E-08	-5.1150E-08	1.7469E-06	3.4101E-06
-1.0324E-08	-1.7321E-08	2.9164E-06	2.7705E-06
-2.9022E-08	-2.0842E-08	1.8424E-06	2.3781E-06
-5.1108E-08	2.4154E-08	2.1670E-06	2.3448E-06
-3.6870E-08	-4.0585E-08	1.1353E-06	2.4791E-06
-3.4462E-08	-5.5192E-09	1.7424E-06	2.9780E-06
