jMRUI Data Textfile

Filename: Export_to_jmrui.txt

PointsInDataset: 2048
DatasetsInFile: 1
SamplingInterval: 0.250000
ZeroOrderPhase: 0E0
BeginTime: 0E0
TransmitterFrequency: 1.2326E8
MagneticField: 2.8936E0
TypeOfNucleus:  
NameOfPatient:  
DateOfExperiment:  
Spectrometer:  
AdditionalInfo: 
SignalNames:  


Signal and FFT
sig(real)	sig(imag)	fft(real)	fft(imag)
Signal 1 out of 1 in file
5.1488E-06	-7.3654E-07	-1.9045E-06	-3.7030E-07
6.4224E-06	-3.0662E-06	-3.9848E-06	2.0177E-06
3.8825E-06	-4.4743E-06	-5.4027E-07	3.4736E-06
1.7960E-06	-4.9329E-06	-2.3989E-07	1.3766E-06
-1.0172E-06	-4.2520E-06	-1.0151E-06	1.6518E-06
-2.6286E-06	-2.6257E-06	-4.8397E-07	2.5256E-06
-3.3467E-06	-6.2870E-07	5.8989E-07	1.3889E-06
-2.3979E-06	7.8511E-07	-1.2726E-06	1.2737E-06
-1.0408E-06	1.4308E-06	-4.2053E-08	3.2711E-06
4.5562E-07	1.0960E-06	1.2952E-06	1.5970E-06
1.1947E-06	2.5032E-07	2.1826E-07	1.2993E-06
1.4913E-06	-7.2241E-07	6.8228E-07	1.3164E-06
9.1604E-07	-1.3285E-06	-2.1447E-07	8.4108E-07
2.8030E-07	-1.5719E-06	-2.2198E-07	1.8383E-06
-5.0745E-07	-1.3618E-06	-7.2474E-08	1.8150E-06
-9.1451E-07	-9.0463E-07	5.9354E-07	2.4042E-06
-1.1243E-06	-4.4890E-07	7.7910E-07	1.3395E-06
-9.3401E-07	-1.5686E-07	4.3554E-07	2.0807E-06
-8.2678E-07	5.3604E-08	1.3724E-06	1.3515E-06
-7.4786E-07	1.0349E-07	3.2417E-07	7.2369E-07
-7.9734E-07	2.2284E-07	-4.7324E-07	1.7332E-06
-7.1628E-07	4.3422E-07	9.6496E-07	2.6977E-06
-7.8286E-07	6.1579E-07	9.9853E-07	1.1933E-06
-4.4128E-07	7.3422E-07	1.0405E-06	2.2387E-06
-2.5086E-07	6.9260E-07	1.3401E-06	2.3307E-07
1.7448E-07	4.6343E-07	-4.7250E-07	1.7761E-06
2.3015E-07	1.5852E-07	1.0159E-06	1.3837E-06
2.4506E-07	-1.4111E-07	-5.1029E-07	2.3090E-06
-2.8367E-08	-2.5434E-07	1.9688E-06	2.4787E-06
-3.0290E-07	-7.7588E-08	5.8150E-07	1.2909E-06
-6.0112E-07	1.9134E-07	1.3014E-06	2.2331E-06
-5.5861E-07	5.8569E-07	8.7300E-07	1.6667E-06
-3.7900E-07	9.2353E-07	1.6774E-06	2.4092E-06
-1.7686E-08	1.0214E-06	2.0232E-06	1.2941E-06
3.1504E-07	8.4365E-07	1.6472E-06	7.2544E-07
6.4673E-07	5.8192E-07	6.6669E-07	6.4781E-07
6.2319E-07	2.6655E-07	2.3938E-07	1.0515E-06
5.2966E-07	-9.7696E-10	-3.6808E-07	2.5657E-06
3.9555E-07	-5.7739E-08	2.1028E-06	3.2060E-06
3.3449E-07	1.1119E-08	1.9813E-06	1.3036E-06
3.0102E-07	-2.1504E-08	1.4507E-06	1.7688E-06
3.5683E-07	-2.8357E-08	1.8776E-06	1.9289E-06
3.4358E-07	-1.9287E-07	2.5655E-06	1.0022E-06
3.4233E-07	-3.6052E-07	8.6037E-07	4.9150E-07
1.8075E-07	-5.3086E-07	1.4601E-06	2.1236E-06
-7.6192E-08	-5.0119E-07	2.1679E-06	8.0563E-07
-3.5249E-07	-4.1442E-07	1.0230E-06	8.3411E-07
-4.5324E-07	-1.0806E-07	1.2514E-06	1.6875E-06
-3.6875E-07	1.2319E-07	2.0115E-06	1.4243E-06
-1.4986E-07	2.2269E-07	1.9582E-06	9.4638E-07
1.2764E-08	2.4655E-07	1.7827E-06	4.7075E-07
2.2619E-07	9.8670E-08	1.3761E-06	7.4180E-07
1.5148E-07	-1.2699E-07	1.5540E-06	-1.3397E-07
-7.6335E-09	-2.8695E-07	-4.9572E-07	6.9086E-07
-2.7005E-07	-3.1981E-07	1.3678E-06	2.2209E-06
-4.4025E-07	-8.2671E-08	1.5574E-06	6.4057E-07
-5.5419E-07	1.5411E-07	9.6822E-07	4.8413E-07
-3.7483E-07	3.2831E-07	-3.5996E-07	1.1432E-06
-1.2694E-07	3.7216E-07	1.3331E-06	2.7507E-06
1.0203E-07	2.9765E-07	1.8431E-06	8.7801E-07
1.9262E-07	6.2402E-08	1.0318E-06	1.0429E-06
2.3810E-07	-1.5283E-07	6.4564E-07	1.1177E-06
-2.5641E-08	-2.8586E-07	8.8400E-07	1.8214E-06
-2.2091E-07	-2.7777E-07	7.7435E-07	1.8560E-06
-4.7634E-07	-4.2593E-08	2.0227E-06	2.6266E-06
-4.1382E-07	2.2020E-07	2.2181E-06	7.5887E-07
-3.4079E-07	4.6015E-07	1.2190E-06	1.4245E-06
-9.0398E-08	5.4330E-07	1.9772E-06	1.5003E-06
5.2199E-08	4.2215E-07	2.3563E-06	6.9219E-07
1.8071E-07	2.3236E-07	6.7866E-07	-3.6782E-08
1.5101E-07	3.9102E-08	1.2393E-06	2.3315E-06
-1.0112E-08	-7.3016E-08	2.6793E-06	-4.2025E-07
-1.8470E-07	-2.9920E-08	-9.3314E-07	1.3537E-07
-2.2654E-07	1.1871E-08	7.8995E-07	2.7223E-06
-2.4072E-07	2.4848E-07	2.1246E-06	1.3400E-06
-6.0384E-08	3.8706E-07	1.4910E-06	7.7934E-08
7.7269E-08	3.9757E-07	-3.2794E-07	6.8447E-07
2.3801E-07	2.8065E-07	8.1642E-07	2.1911E-06
1.7023E-07	1.2021E-07	7.3146E-07	9.7282E-07
2.2465E-07	6.1816E-09	5.4542E-07	2.5853E-06
4.8079E-08	-2.6390E-08	2.0060E-06	1.3000E-06
-7.1476E-08	9.9345E-08	3.5597E-07	1.3834E-06
-1.3694E-07	1.5255E-07	1.1189E-06	1.7690E-06
1.1234E-08	2.5200E-07	2.6618E-07	2.5738E-06
1.3214E-07	2.5436E-07	3.1697E-06	2.6873E-06
2.2863E-07	1.5396E-07	1.2188E-06	-6.6516E-08
3.0070E-07	-4.2121E-08	7.5880E-07	2.5512E-06
2.4317E-07	-1.9842E-07	1.5757E-06	1.6338E-06
6.5451E-08	-3.1281E-07	2.0670E-06	2.9656E-06
-1.2747E-07	-2.9260E-07	3.4749E-06	-9.6315E-09
-1.9034E-07	-1.2869E-07	-2.5433E-07	3.6075E-07
-2.4315E-07	1.1309E-07	1.7476E-06	2.5041E-06
-1.5042E-07	2.4152E-07	1.4261E-06	3.0130E-07
7.2328E-08	3.2238E-07	3.6808E-07	2.4451E-06
2.1129E-07	2.6208E-07	2.8953E-06	1.7671E-06
3.1643E-07	1.0963E-07	1.0240E-06	4.3978E-07
2.8095E-07	-8.0199E-08	1.6154E-06	1.9611E-06
2.2764E-07	-2.4407E-07	1.5782E-06	3.1008E-07
-3.1234E-08	-3.2908E-07	4.3786E-07	1.4927E-06
-1.4670E-07	-3.6396E-07	1.3736E-06	1.4105E-06
-2.4631E-07	-2.2993E-07	4.1705E-07	1.4586E-06
-2.6974E-07	-1.5512E-07	1.3212E-06	2.8075E-06
-2.6950E-07	-4.3370E-08	2.6447E-06	1.1259E-06
-1.7226E-07	6.2039E-09	3.4509E-07	5.5597E-07
-1.8669E-07	7.4157E-08	9.5711E-07	2.4393E-06
-1.2455E-07	8.4360E-08	1.2620E-06	1.4150E-06
-2.1438E-07	7.5397E-08	9.4899E-07	2.3706E-06
-1.6922E-07	1.3831E-07	1.7970E-06	2.1888E-06
-5.2390E-08	1.6018E-07	2.3120E-06	1.7651E-06
2.0803E-09	1.3188E-07	1.3515E-06	4.7827E-07
3.5604E-08	1.3820E-07	6.6105E-07	2.0863E-06
1.4569E-07	6.4022E-08	1.4520E-06	1.5074E-06
8.6607E-08	-8.1142E-08	7.5631E-07	2.3911E-06
3.9966E-08	-9.6326E-08	2.0052E-06	1.9169E-06
-1.2126E-07	-1.8274E-07	6.7733E-07	2.0827E-06
-2.0264E-07	-8.3539E-08	2.1798E-06	3.1307E-06
-2.7655E-07	7.7054E-08	2.7018E-06	1.7546E-06
-1.6917E-07	1.7222E-07	2.0814E-06	1.0896E-06
-5.1965E-08	1.8597E-07	8.8961E-07	1.8499E-06
4.0338E-08	2.2057E-07	2.8718E-06	3.1700E-06
1.0434E-07	1.2789E-07	3.5658E-06	1.7795E-08
1.4606E-07	-1.5673E-08	5.0128E-07	5.7652E-07
1.1491E-07	-9.7026E-08	2.3624E-06	1.9794E-06
-4.1318E-09	-1.7712E-07	1.4912E-06	-2.6673E-07
-4.4230E-08	-1.3393E-07	2.7070E-07	1.7517E-06
-7.3459E-08	-8.4448E-08	1.3739E-06	1.3856E-06
-1.3046E-07	2.2343E-08	2.9913E-07	2.2638E-06
-5.4586E-08	1.1985E-07	2.3675E-06	2.8199E-06
-2.2933E-08	1.3324E-07	2.1637E-06	9.6310E-07
2.8972E-08	8.9335E-08	9.3070E-07	1.2808E-06
8.7538E-08	4.2097E-08	8.8716E-07	2.4493E-06
9.3822E-08	-1.4064E-08	2.3877E-06	2.6707E-06
-3.0054E-09	-7.0903E-08	2.3327E-06	1.1593E-06
-1.3566E-08	-3.0276E-08	1.4848E-06	1.7325E-06
5.2879E-09	-2.0526E-08	2.4603E-06	1.3678E-06
6.5000E-08	-2.2305E-09	7.1228E-07	3.3848E-07
1.0959E-07	-1.4495E-08	-1.1953E-07	3.0957E-06
1.4874E-07	-5.3971E-08	2.8418E-06	3.8543E-06
1.2420E-07	-1.6094E-07	3.8286E-06	1.3765E-06
8.5107E-08	-2.1945E-07	1.9250E-06	2.0663E-07
-3.1727E-08	-2.1729E-07	1.0695E-06	1.8927E-06
-9.3532E-08	-1.9309E-07	2.7810E-06	2.0180E-06
-1.9793E-07	-9.0711E-08	2.3445E-06	4.3496E-07
-2.0339E-07	-2.1781E-08	1.1260E-06	8.0676E-07
-1.5000E-07	9.6562E-09	9.7103E-07	1.8594E-06
-2.9491E-08	7.8024E-08	2.4388E-06	2.2694E-06
-1.5037E-08	4.2861E-08	2.1604E-06	2.6234E-07
7.9291E-08	-1.8807E-08	5.5357E-07	1.9319E-06
5.0669E-08	-5.1614E-08	3.0879E-06	1.9342E-06
1.6675E-08	-1.2858E-07	1.5270E-06	3.7101E-08
-5.8172E-08	-1.5127E-07	1.2644E-06	1.7473E-06
-8.4856E-08	-1.4489E-07	1.9493E-06	8.0369E-07
-1.1844E-07	-9.0081E-08	9.0041E-07	9.3751E-07
-8.0016E-08	1.2410E-08	9.8199E-07	1.5285E-06
-5.8943E-08	6.3946E-08	1.2447E-06	1.9549E-06
-1.0848E-08	5.4251E-08	2.2873E-06	1.7010E-06
-6.8998E-09	6.7884E-08	1.7160E-06	4.4277E-08
2.4178E-09	-3.7750E-09	1.2142E-07	1.0800E-06
6.4854E-08	-2.7988E-08	1.0914E-06	1.3144E-06
5.6420E-08	-6.1739E-08	-3.6878E-07	1.3849E-06
1.0034E-09	-9.5107E-08	9.0414E-07	3.0544E-06
8.9179E-09	-6.9040E-08	1.1994E-06	1.6030E-06
4.2664E-08	-1.1844E-07	2.8389E-07	2.4421E-06
1.7737E-08	-7.4224E-08	1.0194E-06	3.4818E-06
-4.4831E-08	-7.6845E-08	2.9748E-06	3.1338E-06
-2.5591E-08	-4.3000E-08	2.5455E-06	7.4118E-07
-1.5305E-07	-4.6823E-08	5.1234E-07	1.0422E-06
-1.8197E-08	4.8354E-08	1.8991E-07	3.0342E-06
-6.5715E-08	7.4535E-08	2.5911E-06	3.4131E-06
-3.7163E-08	6.3058E-08	2.1942E-06	1.6295E-06
1.6374E-08	4.9562E-08	2.2749E-06	2.0274E-06
1.0224E-07	3.6572E-08	1.1042E-06	1.0891E-06
9.8291E-08	-1.8277E-08	1.7341E-06	3.4963E-06
1.6789E-07	-5.7373E-08	3.1978E-06	8.3963E-07
1.3677E-07	-3.3953E-08	6.3564E-07	1.2340E-06
8.6320E-08	-1.4984E-07	1.2649E-06	2.1353E-06
6.9591E-08	-1.3288E-07	1.4065E-06	2.9927E-06
8.8807E-09	-1.1725E-07	3.4033E-06	2.1153E-06
-1.3861E-08	-7.9604E-08	1.9003E-06	4.4766E-07
-3.5775E-08	-8.6409E-08	1.3463E-06	1.3675E-06
-1.1071E-08	-9.9425E-08	9.0805E-07	9.4833E-07
6.6739E-08	-1.1464E-07	1.4572E-07	2.7125E-06
3.0436E-08	-1.4102E-07	2.5754E-06	2.9194E-06
1.9734E-08	-5.9791E-08	1.8604E-06	9.0174E-07
5.1888E-09	-1.2706E-07	6.8425E-07	1.7063E-06
-6.4133E-08	-1.5058E-07	9.1563E-07	3.1128E-06
-3.8234E-08	-1.4529E-07	3.4834E-06	2.1709E-06
-5.8645E-08	-6.0148E-08	1.5024E-07	4.3001E-08
-7.6366E-08	-6.1547E-08	1.2416E-06	4.4604E-06
-4.1840E-08	-8.3318E-08	3.0902E-06	3.7906E-07
-1.3498E-08	-6.9019E-08	-2.2197E-07	2.2769E-06
-6.3952E-08	-1.0587E-07	2.3423E-06	2.2370E-06
-1.4285E-07	-6.9955E-08	5.8683E-07	2.0773E-06
-1.3103E-07	-2.5144E-08	2.1858E-06	2.7629E-06
-4.9965E-08	-3.5751E-08	1.8031E-06	1.5107E-06
-3.7582E-08	-2.5955E-08	7.5096E-07	1.3869E-06
-1.1690E-08	-3.5222E-09	3.9355E-07	3.6144E-06
-4.4732E-09	-3.8129E-08	3.1736E-06	2.5189E-06
-2.7919E-08	-1.9176E-08	6.1514E-07	1.2126E-06
4.1520E-09	-7.6842E-08	9.1971E-07	3.3929E-06
-2.6409E-08	-8.9119E-08	1.8904E-06	3.4874E-06
-5.8993E-09	-2.3536E-08	3.4549E-06	2.5041E-06
-7.3832E-09	-4.0701E-08	1.2779E-06	7.7860E-07
-6.2782E-08	-1.7677E-08	1.1569E-06	3.6350E-06
6.8408E-09	-5.1107E-08	3.3100E-06	1.9033E-06
-2.8241E-08	-3.1730E-08	7.8200E-07	1.2131E-06
-9.8374E-09	9.0934E-09	1.2812E-06	3.3291E-06
