jMRUI Data Textfile

Filename: Export_to_jmrui.txt

PointsInDataset: 2048
DatasetsInFile: 1
SamplingInterval: 0.250000
ZeroOrderPhase: 0E0
BeginTime: 0E0
TransmitterFrequency: 1.2326E8
MagneticField: 2.8936E0
TypeOfNucleus:  
NameOfPatient:  
DateOfExperiment:  
Spectrometer:  
AdditionalInfo: 
SignalNames:  


Signal and FFT
sig(real)	sig(imag)	fft(real)	fft(imag)
Signal 1 out of 1 in file
4.2078E-06	-7.4549E-07	-2.9529E-07	-3.1387E-07
4.6175E-06	-2.1954E-06	-2.1433E-07	4.2874E-07
2.7012E-06	-3.2975E-06	-2.4391E-07	-4.7016E-07
1.1299E-06	-3.5913E-06	-1.6134E-06	1.5011E-06
-7.9550E-07	-2.9539E-06	1.8456E-06	2.2208E-06
-1.7306E-06	-1.8388E-06	1.2845E-06	-1.2312E-06
-2.2450E-06	-5.2903E-07	-1.2129E-06	2.0488E-07
-1.5321E-06	4.7041E-07	2.1398E-07	1.6168E-06
-6.9722E-07	8.8145E-07	6.6129E-07	1.0299E-06
3.5020E-07	6.1798E-07	1.3469E-06	1.0085E-06
8.3602E-07	-6.2222E-09	6.8967E-07	-4.1053E-07
8.3848E-07	-6.3652E-07	-3.2155E-08	1.2747E-06
4.2757E-07	-1.0610E-06	1.5134E-06	4.7206E-07
-3.6580E-08	-1.0270E-06	1.8247E-07	4.2896E-07
-5.0018E-07	-8.4162E-07	1.3115E-06	5.3514E-07
-6.5827E-07	-4.8820E-07	-2.5130E-07	-3.0280E-07
-6.7871E-07	-2.4529E-07	-2.8521E-07	1.9065E-06
-5.0536E-07	-1.3257E-07	1.6873E-06	1.8258E-06
-4.9289E-07	-1.6344E-08	1.7278E-06	2.2999E-07
-4.6412E-07	-6.2788E-08	8.8503E-07	7.5198E-07
-5.5670E-07	5.0094E-08	2.1192E-06	-1.4466E-08
-6.4306E-07	1.9835E-07	-3.1803E-07	-9.3327E-07
-6.5942E-07	3.7465E-07	-9.2845E-08	1.8834E-06
-4.8045E-07	5.5149E-07	1.8242E-06	9.7579E-07
-2.5341E-07	5.5076E-07	1.1307E-06	-2.9508E-08
5.7346E-08	4.4201E-07	4.5569E-07	2.8649E-07
1.9556E-07	2.0266E-07	6.2776E-07	5.3829E-07
2.0687E-07	-6.1779E-08	-1.2863E-07	8.0769E-07
4.9314E-08	-8.5769E-08	1.2704E-06	2.5117E-06
-1.8625E-07	-3.5158E-08	2.9626E-06	-2.0578E-07
-3.7678E-07	1.4403E-07	-4.3992E-07	-9.0381E-07
-3.6249E-07	4.7561E-07	1.0327E-07	2.1705E-06
-2.4355E-07	6.8413E-07	2.0260E-06	8.2343E-07
8.4887E-08	7.3105E-07	4.7656E-07	3.0398E-07
3.2940E-07	6.0569E-07	9.9263E-07	1.7631E-06
4.6149E-07	3.5748E-07	2.4272E-06	7.2890E-07
4.6211E-07	1.0109E-07	9.9511E-07	-6.3679E-07
4.3713E-07	1.2827E-08	2.2912E-07	1.3026E-06
2.8891E-07	-2.3619E-08	2.3658E-06	9.0056E-07
1.4276E-07	-3.3238E-08	1.0008E-06	-6.7999E-07
1.6904E-07	4.8241E-08	4.2218E-07	7.3184E-07
2.6508E-07	5.0316E-08	1.2135E-06	6.1138E-07
2.1909E-07	-8.2960E-08	1.0565E-06	3.0483E-07
3.2136E-07	-2.1533E-07	6.6808E-07	6.3569E-08
1.6292E-07	-3.2911E-07	1.5591E-07	1.0516E-06
4.7610E-08	-4.2855E-07	1.9884E-06	1.0215E-06
-2.1980E-07	-3.2774E-07	4.3018E-07	-1.2040E-06
-2.7286E-07	-2.2138E-07	-8.8171E-07	1.7144E-06
-2.4120E-07	1.6966E-08	1.5055E-06	1.1131E-06
-2.2862E-07	1.1149E-07	-1.9905E-07	1.1259E-06
4.5121E-09	1.0590E-07	1.7407E-06	1.9448E-06
1.2475E-07	3.5366E-08	9.9479E-07	3.8352E-07
4.1240E-08	-6.1251E-08	9.8960E-07	1.2649E-06
-2.6412E-09	-1.9494E-07	7.2782E-07	7.9111E-07
-1.2888E-07	-1.9029E-07	8.2917E-07	1.4379E-06
-3.1870E-07	-5.5986E-08	4.2424E-07	1.5767E-06
-3.7653E-07	8.1177E-08	1.9354E-06	2.9456E-06
-2.6155E-07	2.4360E-07	3.1399E-06	7.2624E-07
-7.6339E-08	2.5630E-07	1.6717E-06	-4.0041E-08
7.3344E-08	1.7439E-07	9.4690E-07	6.6417E-07
1.3045E-07	2.9046E-08	1.7605E-06	8.1347E-07
8.5586E-08	-1.4208E-07	3.0753E-07	4.3285E-07
-5.8717E-08	-2.6430E-07	1.9499E-06	2.9068E-06
-2.6296E-07	-2.1511E-07	3.4101E-06	-5.2578E-07
-3.3829E-07	-4.0071E-08	7.2711E-07	-2.8241E-07
-3.5471E-07	2.4267E-07	9.6366E-07	4.0881E-08
-3.2526E-07	3.5827E-07	3.7463E-07	1.3083E-06
-1.2048E-07	4.0761E-07	2.0968E-06	6.1018E-07
7.5792E-08	4.1045E-07	4.3203E-07	5.4389E-07
9.5088E-08	2.4063E-07	2.2203E-06	8.3540E-07
1.0797E-07	4.9892E-08	3.9466E-08	-8.3290E-07
-1.0669E-08	-5.0548E-08	3.0738E-07	2.2276E-06
-1.0294E-07	-5.1960E-08	1.7327E-06	4.1443E-08
-2.0942E-07	4.6556E-08	-8.4246E-07	1.3183E-06
-1.8677E-07	1.5881E-07	2.0643E-06	2.4378E-06
-7.9583E-08	2.2561E-07	7.7098E-07	1.7116E-07
4.7460E-08	2.6660E-07	9.0669E-07	3.1083E-06
1.3942E-07	1.9133E-07	3.5048E-06	7.7383E-07
1.0555E-07	1.2596E-07	9.8078E-07	-2.4785E-07
4.8532E-08	2.3487E-08	8.4410E-07	6.2999E-07
-2.6847E-08	-9.8498E-09	6.7607E-08	1.1942E-06
-2.3009E-08	1.0950E-07	1.0533E-06	2.3994E-06
-9.7345E-08	2.0098E-07	1.8391E-06	2.0616E-06
4.3389E-09	2.4782E-07	2.5295E-06	1.9339E-06
1.1952E-07	2.0696E-07	3.4820E-06	8.8900E-07
2.4242E-07	1.1159E-07	2.6032E-06	-1.4629E-06
2.6298E-07	2.9454E-08	-3.2585E-07	-7.1702E-07
1.9477E-07	-1.5341E-07	1.1104E-07	1.3451E-06
7.1836E-08	-2.8616E-07	1.0452E-06	1.4719E-06
-7.5783E-08	-1.9333E-07	1.0116E-06	6.3264E-07
-1.4512E-07	-9.3519E-08	-5.9836E-08	2.0059E-06
-1.7162E-07	5.4504E-08	2.1513E-06	2.2296E-06
-1.5302E-07	1.4813E-07	1.0891E-06	1.5275E-06
3.8020E-08	2.7002E-07	3.1261E-06	2.3376E-06
1.5235E-07	1.9016E-07	2.1886E-06	-6.7150E-07
2.3502E-07	6.4266E-08	5.8177E-07	1.1973E-06
2.3094E-07	-1.2275E-07	1.6642E-06	1.6062E-06
1.8315E-07	-1.5827E-07	2.6886E-06	9.8242E-07
4.2298E-08	-2.6746E-07	6.5806E-07	-6.0692E-07
-1.1398E-07	-2.0228E-07	6.7685E-07	2.8833E-06
-1.8273E-07	-1.9906E-07	3.1989E-06	3.9893E-07
-2.0449E-07	-1.6542E-07	3.2028E-07	3.9600E-07
-1.8871E-07	-4.7564E-08	1.3025E-06	1.4035E-06
-1.7057E-07	2.8750E-08	7.2820E-07	1.8224E-06
-1.1452E-07	3.9123E-08	2.8019E-06	2.2621E-06
-1.2056E-07	3.2349E-08	2.4718E-06	-1.1283E-07
-1.1168E-07	1.1040E-07	5.4320E-07	6.3183E-07
-9.7551E-08	1.1981E-07	1.8975E-06	2.0030E-06
-1.0230E-08	1.2231E-07	2.0124E-06	-2.9329E-07
-1.6288E-08	1.2113E-07	-1.8834E-07	1.3296E-06
2.4997E-08	6.6576E-08	1.7034E-06	1.8265E-06
8.4159E-08	-1.7385E-08	6.8337E-07	1.9563E-06
7.1545E-08	-8.4855E-08	2.8474E-06	2.6945E-06
4.5261E-09	-1.4714E-07	2.7637E-06	8.3687E-07
-6.8708E-08	-9.4857E-08	2.3518E-06	1.8287E-07
-1.3175E-07	-2.4395E-08	1.8825E-07	8.6503E-07
-2.3294E-07	3.5914E-08	2.6634E-06	2.5456E-06
-1.7893E-07	1.3336E-07	1.5747E-06	-1.4298E-07
-1.1483E-07	1.6186E-07	1.3093E-06	2.9949E-06
6.8749E-09	1.7979E-07	3.7710E-06	1.0387E-06
8.5272E-08	9.9603E-08	2.2930E-06	2.7242E-07
8.6133E-08	2.0268E-08	1.7568E-06	4.6544E-10
9.1817E-08	-6.9337E-08	1.2875E-06	1.4293E-06
4.9926E-08	-8.4746E-08	2.8351E-06	6.0307E-07
-4.8597E-08	-7.9096E-08	1.5154E-06	-2.5987E-07
-1.1685E-07	-2.5896E-08	5.8884E-07	1.4882E-07
-5.5758E-08	3.9370E-08	4.1707E-07	1.9247E-06
-6.4447E-08	8.7703E-08	2.0783E-06	1.4647E-06
-4.5187E-09	9.4476E-08	1.0839E-06	1.3694E-06
4.1146E-08	7.3346E-08	2.2213E-06	1.8311E-06
1.9418E-08	4.6037E-08	2.1788E-06	9.5708E-07
4.1286E-08	5.4019E-08	1.7103E-06	3.8741E-07
-1.1660E-08	-4.9863E-08	4.3423E-07	1.7887E-06
6.0091E-08	-2.7435E-08	3.0462E-06	2.4326E-06
3.1618E-08	-6.3275E-09	2.5319E-06	2.6746E-07
8.4100E-08	-3.6602E-08	1.9063E-06	5.3632E-07
7.3652E-08	-2.7995E-08	8.1198E-07	1.0277E-06
1.1072E-07	-7.5855E-08	3.1521E-06	2.1375E-06
1.4140E-07	-1.4271E-07	2.0382E-06	-1.5937E-06
4.3374E-08	-1.5082E-07	-6.1638E-07	1.5904E-06
2.1294E-08	-1.0970E-07	1.9521E-06	1.9150E-06
-8.1551E-08	-1.2173E-07	1.2830E-06	1.8909E-06
-1.9704E-07	-1.0299E-07	2.8579E-06	1.6952E-06
-1.2625E-07	8.8839E-09	1.6368E-06	6.8043E-07
-1.0314E-07	1.4093E-08	1.8446E-06	1.8131E-06
-1.6923E-08	6.6791E-08	2.2281E-06	1.4542E-06
-9.2069E-09	3.8321E-08	2.6919E-06	1.5765E-06
4.5162E-08	-3.0827E-08	3.0208E-06	5.4678E-07
4.1495E-08	-5.6800E-08	2.3369E-06	-1.0376E-07
-3.0185E-08	-7.0083E-08	1.2302E-06	-3.0574E-07
-8.2182E-08	-1.4323E-07	3.0805E-07	1.0485E-06
-7.9695E-08	-8.2628E-08	1.5461E-06	2.1299E-06
-8.5664E-08	-3.7778E-08	2.2871E-06	1.1678E-06
-1.1142E-07	-5.2664E-08	1.4992E-06	9.6456E-07
-8.2193E-08	3.4180E-08	1.7869E-06	1.6257E-06
-3.9867E-08	5.1345E-08	1.9829E-06	1.0896E-06
-4.2962E-09	1.4920E-08	1.8016E-06	1.8363E-06
-3.5728E-08	3.9210E-08	3.3114E-06	8.8134E-07
-5.7614E-08	-1.0438E-08	1.2082E-06	-3.6750E-07
-8.3311E-09	-1.3701E-08	9.2268E-07	1.5604E-06
1.5585E-08	-9.0293E-09	1.2708E-06	1.5958E-06
3.8686E-08	-4.4107E-08	2.2843E-06	2.3486E-06
-5.8196E-08	-3.9212E-08	1.9593E-06	5.7273E-07
-1.0539E-08	-2.0002E-08	1.1463E-06	3.2964E-06
-6.4061E-08	-5.2013E-08	5.1093E-06	2.0619E-06
-6.5521E-08	-3.8350E-08	2.6380E-06	-8.6670E-07
-4.3806E-08	-3.6054E-08	1.9335E-06	1.3910E-06
-6.5276E-08	2.3071E-08	3.3149E-06	1.3486E-07
-5.2101E-08	2.4213E-08	1.0292E-06	-1.0830E-07
1.6424E-08	8.6894E-08	2.2946E-06	1.8783E-06
9.0531E-09	6.4545E-08	2.6900E-06	-3.6700E-07
5.2073E-08	3.0640E-08	1.3553E-06	6.6629E-07
1.2663E-07	3.9636E-08	1.8098E-06	-1.3923E-07
7.4564E-08	1.7651E-08	1.3923E-07	1.5514E-06
1.4476E-07	-3.4049E-09	2.9173E-06	1.9459E-06
1.2210E-07	-9.9849E-08	1.9428E-06	3.0819E-07
-4.3148E-09	-1.1214E-07	1.6698E-06	1.1064E-06
1.9028E-08	-9.0778E-08	2.0562E-06	1.8345E-06
-1.4104E-08	-8.3425E-08	4.0675E-06	2.7645E-07
-9.4348E-09	-7.1937E-08	6.1744E-07	-1.5861E-06
4.6770E-09	-5.8677E-08	4.4515E-07	2.2686E-06
2.1840E-08	-5.4891E-08	2.9429E-06	9.3465E-07
2.2247E-08	-7.9042E-08	1.1335E-06	7.5218E-08
2.0352E-08	-9.3666E-08	1.4461E-06	1.7441E-06
2.8593E-08	-1.2113E-07	2.4662E-06	5.9679E-07
-4.0820E-08	-6.2275E-08	1.3671E-06	8.0288E-07
-1.9773E-08	-7.5040E-08	2.3876E-06	4.1971E-07
2.1355E-08	-1.0160E-07	3.7461E-07	7.8549E-08
-4.0233E-08	-6.2877E-08	1.3708E-06	1.8917E-06
-4.6722E-08	-2.0871E-08	1.4295E-06	7.6826E-07
-5.5107E-08	-4.5129E-08	1.4893E-06	1.7957E-06
-6.6563E-08	-1.8130E-08	1.9969E-06	9.5312E-07
-7.6048E-08	-4.6089E-08	1.6143E-06	1.3936E-06
-4.1351E-08	2.8284E-08	2.5320E-06	8.6628E-07
-3.2560E-08	4.4891E-09	1.1773E-06	-3.4440E-07
-5.2662E-08	-1.5475E-08	1.0441E-07	1.9772E-06
-1.0770E-08	-8.1030E-09	2.8591E-06	1.6116E-06
3.5628E-09	1.1513E-08	6.2466E-07	3.0218E-07
-1.7731E-08	-4.9237E-09	1.9945E-06	2.2669E-06
-9.1357E-09	-1.5436E-08	9.9725E-07	-1.7246E-07
2.6223E-08	1.8361E-08	4.3081E-07	3.4628E-06
1.8209E-08	-4.5199E-08	3.5797E-06	1.5180E-06
-8.3625E-09	2.2645E-09	1.4081E-06	8.6596E-07
2.3541E-08	-2.3209E-08	2.0414E-06	1.1630E-06
-3.0083E-08	-9.7606E-09	8.7969E-07	1.5265E-06
7.1745E-09	-6.3538E-09	2.7325E-06	2.3017E-06
