jMRUI Data Textfile

Filename: Export_to_jmrui.txt

PointsInDataset: 2048
DatasetsInFile: 1
SamplingInterval: 0.250000
ZeroOrderPhase: 0E0
BeginTime: 0E0
TransmitterFrequency: 1.2326E8
MagneticField: 2.8936E0
TypeOfNucleus:  
NameOfPatient:  
DateOfExperiment:  
Spectrometer:  
AdditionalInfo: 
SignalNames:  


Signal and FFT
sig(real)	sig(imag)	fft(real)	fft(imag)
Signal 1 out of 1 in file
2.5316E-06	-7.0158E-07	1.2595E-06	3.4612E-08
1.4506E-06	-6.6150E-07	2.5824E-06	-1.6527E-06
9.3299E-07	-1.0254E-06	-3.3666E-08	-1.0380E-06
4.2349E-07	-1.1555E-06	2.1235E-06	-1.9670E-07
-2.2770E-07	-9.2679E-07	5.4738E-07	-1.4882E-06
-5.4965E-07	-6.1366E-07	1.1465E-06	2.3813E-07
-6.3905E-07	-2.0760E-07	1.3285E-06	-5.1753E-07
-4.4662E-07	1.2374E-07	2.1223E-06	-3.1168E-07
-1.2661E-07	2.6355E-07	1.0472E-06	-1.9545E-06
1.6155E-07	4.2961E-08	1.2907E-07	-2.1172E-07
2.1383E-07	-1.7473E-07	7.8330E-07	-6.8624E-09
1.9750E-07	-3.7443E-07	1.4210E-06	5.7338E-07
-2.7375E-08	-4.5917E-07	1.7976E-06	-7.5652E-07
-2.2474E-07	-3.9489E-07	6.8898E-07	-1.5682E-07
-3.3467E-07	-3.2363E-07	1.4815E-06	-5.3481E-09
-3.3420E-07	-1.4652E-07	8.7077E-07	8.6138E-08
-2.5102E-07	6.5898E-08	1.8906E-06	7.2302E-07
-1.8571E-07	1.3635E-07	1.9253E-06	-1.9651E-07
-8.6888E-08	4.1122E-08	2.2440E-06	3.6721E-07
-1.9751E-08	1.7821E-08	2.6310E-06	-1.2474E-06
-1.3479E-07	7.6779E-09	1.0518E-06	-6.6277E-07
-2.5128E-07	2.2513E-08	2.4046E-06	-5.1900E-07
-3.2824E-07	1.4476E-08	1.3199E-06	-1.6474E-06
-2.9666E-07	1.4679E-07	9.2692E-07	-8.9896E-07
-1.5707E-07	1.3280E-07	4.2314E-07	-8.3198E-07
-4.9627E-08	1.2938E-07	5.8460E-07	1.5468E-07
6.5577E-08	3.9707E-08	7.6878E-07	9.5720E-08
-1.5130E-09	7.6048E-08	1.1056E-06	1.0315E-06
-2.2441E-09	8.6338E-09	2.5303E-06	4.7433E-07
-9.9820E-08	4.3999E-08	2.1752E-06	-8.0325E-07
-2.0678E-07	1.7614E-07	1.1020E-06	-8.7831E-07
-1.8047E-07	2.2732E-07	7.6889E-07	4.3637E-07
-1.2584E-07	2.5423E-07	2.6329E-06	4.0253E-07
1.8039E-08	3.4450E-07	1.6460E-06	-1.3436E-06
9.1337E-08	2.6099E-07	1.4565E-06	7.4819E-08
1.8171E-07	1.2052E-07	1.6362E-06	-1.7738E-06
2.2498E-07	8.8876E-08	-6.4069E-07	1.6344E-07
1.4896E-07	6.8540E-08	1.9329E-06	7.5100E-07
1.0318E-07	4.4075E-08	7.1617E-07	-1.0109E-07
1.1878E-07	1.0246E-07	2.0459E-06	1.1608E-06
1.2073E-07	8.6997E-08	2.1839E-06	-7.9358E-07
1.1236E-07	5.0053E-08	8.1204E-07	-3.2909E-07
1.6408E-07	-2.9441E-08	1.0069E-06	6.3048E-07
1.5580E-07	-1.3445E-07	1.8006E-06	8.6585E-07
1.5612E-07	-2.2834E-07	2.4382E-06	6.1249E-07
8.2722E-08	-2.9811E-07	2.6980E-06	-4.4317E-07
-2.3167E-08	-2.3502E-07	1.9431E-06	-4.4831E-07
-8.6037E-08	-7.1558E-08	2.4501E-06	-1.2723E-06
-1.1254E-07	4.0829E-09	-2.1040E-07	-1.5428E-06
-6.0892E-08	1.2384E-07	3.2807E-07	1.6759E-06
2.6229E-08	1.0689E-07	2.7771E-06	5.5583E-07
8.2509E-08	4.4333E-09	1.2674E-06	-8.6773E-07
1.1003E-07	-8.0974E-08	6.4715E-07	1.0908E-06
1.0093E-07	-1.9878E-07	2.3685E-06	1.0443E-06
-6.6335E-08	-2.1590E-07	2.1473E-06	8.5487E-07
-1.3731E-07	-8.9856E-08	3.6752E-06	5.5233E-07
-1.8688E-07	-3.2095E-08	3.0304E-06	-1.4113E-06
-1.4824E-07	1.2098E-07	1.4962E-06	-1.3014E-06
-9.4078E-08	1.9290E-07	1.1910E-06	2.3347E-07
1.4995E-08	1.4992E-07	2.8393E-06	-3.2245E-07
1.9943E-08	8.1355E-08	1.1570E-06	-9.8596E-07
3.5381E-08	-6.4803E-08	2.0188E-06	2.2400E-07
-2.2984E-08	-1.3853E-07	1.5768E-06	-9.3827E-07
-1.1342E-07	-1.3428E-07	1.2110E-06	1.5824E-07
-1.8081E-07	-1.7258E-07	1.5216E-06	6.2779E-07
-2.2333E-07	-3.1651E-08	3.4353E-06	7.8403E-07
-2.5052E-07	8.7128E-08	3.0433E-06	-1.9078E-06
-2.1061E-07	1.8899E-07	1.4118E-06	-1.4859E-06
-1.4824E-07	1.5529E-07	4.9943E-07	-1.2048E-06
2.7648E-09	1.7326E-07	9.0344E-07	7.9211E-07
-1.5731E-08	1.4572E-07	2.1024E-06	-6.8981E-07
-5.1172E-08	4.0685E-08	8.4827E-08	9.5252E-09
-3.1105E-08	6.0482E-08	2.0083E-06	1.8280E-06
-2.7748E-08	6.3682E-08	3.5950E-06	-3.8481E-07
-6.1472E-09	4.8220E-08	1.1281E-06	-1.6963E-06
2.5006E-08	5.8672E-08	6.8592E-07	1.1491E-06
6.6901E-08	7.2114E-08	3.3511E-06	2.4644E-07
3.8381E-08	4.8066E-08	1.4296E-06	-1.5403E-06
2.1222E-08	2.2850E-09	4.2472E-07	5.1455E-07
-1.7038E-08	-2.7099E-10	1.8499E-06	1.5925E-06
-2.2812E-08	4.0374E-08	3.7059E-06	8.7554E-07
-1.2983E-07	7.4705E-08	2.9220E-06	-1.4295E-06
-5.1175E-08	5.6550E-08	1.5296E-06	3.4642E-07
6.2148E-08	8.3387E-08	4.1331E-06	-3.1350E-07
4.3195E-08	1.5610E-07	1.9553E-06	-2.3614E-06
8.7765E-08	4.8944E-09	1.5247E-06	-6.0410E-07
1.2709E-07	-2.1753E-08	1.5009E-06	-1.3213E-06
1.1743E-07	-2.5373E-08	8.7815E-07	1.1094E-07
5.9459E-08	-1.4339E-07	2.6478E-06	-8.0101E-09
-9.5783E-09	-1.0759E-07	1.8212E-06	-1.6174E-06
-4.8055E-08	-1.0921E-07	6.1751E-07	-2.4950E-07
-1.3720E-07	4.5733E-09	2.1208E-06	-4.6506E-08
-9.6373E-08	1.3338E-08	1.0544E-06	-1.0483E-06
4.2279E-08	5.9122E-08	5.1730E-07	6.3899E-07
4.5642E-08	4.2794E-08	2.2112E-06	1.6214E-06
5.9952E-08	2.1990E-08	3.8928E-06	-2.7801E-07
2.8080E-08	-1.6962E-08	1.8711E-06	-1.4354E-06
2.9789E-08	-8.9337E-08	2.0852E-06	-5.0444E-07
1.8689E-08	-1.0129E-07	1.2752E-06	-8.4243E-07
-5.4693E-08	-7.1864E-08	2.3988E-06	7.0964E-08
-6.7587E-08	-7.0040E-08	1.2816E-06	-1.6602E-06
-1.0464E-07	-1.1620E-08	1.2540E-06	9.9104E-07
-8.0363E-08	-8.0183E-08	2.9110E-06	-8.9242E-07
-9.5662E-08	-8.1635E-08	1.4671E-06	-7.0094E-07
-5.2062E-08	-4.3938E-08	1.5768E-06	-1.1507E-06
-6.8751E-08	-7.0473E-08	5.9741E-07	5.1779E-07
-6.2697E-09	2.0924E-08	3.2589E-06	1.5245E-07
-9.1159E-08	-2.6337E-08	1.6712E-06	-1.8317E-06
-5.8275E-08	-7.5175E-09	6.8327E-07	-2.7193E-07
-4.7304E-08	8.6136E-08	1.7854E-06	3.0086E-07
-7.1115E-08	6.9502E-08	2.0240E-06	-5.1166E-07
-1.9834E-08	2.0831E-08	1.8654E-06	-3.3114E-07
-5.7188E-08	-5.3805E-08	1.8513E-06	-1.2015E-06
-1.0567E-08	-2.5642E-08	6.6894E-07	-4.3413E-07
-7.0393E-08	-2.0885E-08	1.5312E-06	-7.0097E-08
-7.4963E-08	2.4882E-08	1.1104E-06	2.0120E-07
-8.4718E-08	6.2925E-08	2.7207E-06	2.4310E-07
-9.3124E-08	2.4175E-08	1.5760E-06	-1.6473E-06
-1.9945E-08	6.9749E-08	6.6799E-07	3.4251E-07
-4.0338E-08	4.0277E-08	2.4989E-06	-4.0588E-07
7.9249E-09	6.4717E-08	2.5842E-07	-1.1776E-06
4.8468E-09	1.6820E-08	6.9883E-07	1.4529E-06
2.1311E-08	-2.8213E-08	2.3246E-06	8.0521E-07
1.9878E-08	-1.1198E-08	2.9412E-06	4.5487E-07
-5.4682E-09	-6.8862E-08	2.7125E-06	-1.6446E-06
-2.4200E-08	-3.6777E-08	7.0958E-07	-6.9235E-07
-2.8376E-10	-3.3433E-08	1.5472E-06	-3.1557E-07
-3.7625E-08	3.4608E-08	6.4423E-07	2.5437E-07
1.7420E-08	4.8095E-08	2.3919E-06	1.0991E-06
-3.3000E-08	3.2046E-08	2.9466E-06	-4.5109E-07
-4.3855E-08	7.3089E-08	2.2177E-06	-1.5531E-06
-1.1659E-08	6.6704E-08	4.7572E-07	-1.3078E-06
4.4065E-08	3.3554E-08	1.2704E-07	1.3466E-07
2.6607E-08	1.2805E-08	9.6338E-07	1.6301E-06
1.9040E-08	-3.4881E-10	2.9383E-06	5.9865E-07
1.0232E-07	-3.9719E-08	1.5553E-06	5.2238E-08
4.4460E-08	-8.2265E-08	3.0710E-06	4.1557E-07
3.8423E-08	-1.0952E-07	1.4018E-06	-1.2073E-06
5.0563E-08	-8.1157E-08	1.8710E-06	1.3251E-06
2.4089E-09	-8.4512E-08	3.2082E-06	-8.2891E-07
-7.8112E-08	-7.8253E-08	1.6473E-06	-6.3142E-07
-1.5214E-08	-1.0048E-07	1.9392E-06	-7.3995E-07
-2.9021E-08	-3.3972E-08	1.1932E-06	-2.5778E-07
-7.7760E-08	-3.9544E-08	1.6788E-06	1.3268E-07
-3.5657E-08	-1.6681E-08	2.3543E-06	4.5620E-07
-6.5955E-08	-3.6092E-08	2.8565E-06	-1.5363E-06
-2.9363E-08	-2.3002E-08	3.2115E-08	-1.0782E-06
-3.6568E-08	-6.1366E-09	1.3164E-06	8.8971E-07
1.2245E-09	-3.6185E-08	1.5052E-06	1.1663E-07
-7.6290E-08	-2.5438E-08	2.0892E-06	9.3290E-07
-1.0093E-07	3.7711E-09	2.4602E-06	-4.5729E-07
-7.0100E-08	-5.7896E-08	1.3844E-06	3.1683E-07
-1.6840E-08	4.5210E-08	2.9137E-06	5.4308E-07
-9.4513E-09	1.7999E-08	2.5253E-06	-9.1634E-07
-5.7509E-08	2.3572E-08	1.6091E-06	-4.4706E-07
-4.5812E-08	-1.0329E-08	1.6994E-06	1.5078E-07
-3.3388E-08	3.7092E-08	2.6077E-06	5.7897E-07
-3.8497E-08	2.2691E-08	3.1796E-06	-9.4043E-07
-5.5112E-08	1.0014E-08	1.4802E-06	-1.0210E-06
-5.7547E-09	5.8414E-08	2.1010E-06	2.2354E-07
-5.3163E-08	-1.6908E-08	2.8824E-06	-6.7548E-07
2.0338E-08	-1.6965E-08	2.0574E-06	-1.4809E-06
-8.1883E-09	-3.3620E-08	1.2564E-06	-4.4523E-07
4.7011E-09	-1.0952E-08	2.8494E-06	-4.6690E-07
-1.2255E-08	2.6403E-09	1.5416E-06	-2.1798E-06
-1.9042E-08	-1.0817E-08	5.3249E-07	-3.6951E-07
-5.7250E-08	3.6610E-08	1.7763E-06	-7.9540E-08
-5.6489E-09	8.5174E-08	2.2310E-06	-9.8606E-07
-9.3634E-08	3.5367E-08	3.8241E-07	-2.1197E-06
2.5775E-08	1.4479E-07	-8.6011E-07	1.1400E-06
7.1754E-09	9.0638E-08	2.7412E-06	1.6596E-06
4.3296E-08	4.8689E-08	2.3607E-06	-1.0813E-06
7.8025E-08	4.5618E-08	5.5631E-07	-4.7286E-08
1.2581E-07	-2.7741E-08	1.9938E-06	1.2249E-06
7.7010E-08	-2.1377E-08	2.6159E-06	-1.1606E-08
6.3631E-08	-5.6363E-08	2.5277E-06	1.0099E-07
1.9329E-08	-7.2717E-08	2.5187E-06	-9.5473E-07
-3.0260E-09	-4.6401E-08	2.0090E-06	1.1393E-07
1.6467E-08	-4.7540E-08	3.6056E-06	-1.5783E-06
-3.1622E-08	-1.3567E-08	2.9721E-07	-2.2172E-06
6.3471E-08	-2.2909E-08	9.1997E-07	6.0662E-07
1.2599E-08	-6.2418E-08	2.4849E-06	3.1183E-08
3.7326E-08	-7.1282E-08	2.8672E-06	-1.5042E-06
5.5516E-08	-3.6908E-08	5.6667E-07	-2.1070E-06
9.3149E-09	-9.9321E-08	7.2324E-07	-2.0654E-07
4.7594E-08	-3.1167E-08	9.1700E-07	-7.4407E-07
-5.0432E-08	-4.4750E-08	9.8730E-07	1.7741E-07
-4.7107E-08	-5.0946E-08	1.6311E-06	-5.3166E-07
-3.8133E-08	-4.8991E-08	9.1605E-07	-9.7469E-07
-1.4003E-07	-4.6574E-08	-5.3693E-07	-1.7058E-07
-1.0350E-07	-1.8160E-08	1.0426E-06	2.4289E-06
-7.7307E-08	-2.2272E-08	3.4874E-06	1.2549E-07
1.9325E-08	6.1257E-08	1.3458E-06	-1.2886E-06
-3.3179E-08	-3.2310E-08	5.2449E-07	3.1418E-07
-7.8425E-08	-2.8561E-08	2.1253E-06	1.0578E-06
2.0878E-08	2.7813E-08	2.4763E-06	-7.3732E-07
2.6436E-08	2.2465E-08	1.3999E-06	-4.5272E-07
-6.9372E-08	-6.1258E-08	1.5821E-06	-1.0652E-06
2.0071E-08	5.0674E-09	-4.2278E-07	-1.3428E-07
-1.5254E-08	-1.8616E-08	1.7555E-06	1.8811E-06
3.5036E-08	1.9081E-08	2.5165E-06	-8.3279E-07
5.1458E-08	2.2940E-08	6.7484E-08	1.9303E-08
-5.8536E-09	-2.8608E-08	1.9697E-06	1.6405E-06
-6.1450E-08	-3.6729E-08	2.4382E-06	-2.2131E-07
-8.9284E-08	-3.7654E-08	1.5773E-06	3.4409E-07
