jMRUI Data Textfile

Filename: Export_to_jmrui.txt

PointsInDataset: 2048
DatasetsInFile: 1
SamplingInterval: 0.250000
ZeroOrderPhase: 0E0
BeginTime: 0E0
TransmitterFrequency: 1.2326E8
MagneticField: 2.8936E0
TypeOfNucleus:  
NameOfPatient:  
DateOfExperiment:  
Spectrometer:  
AdditionalInfo: 
SignalNames:  


Signal and FFT
sig(real)	sig(imag)	fft(real)	fft(imag)
Signal 1 out of 1 in file
3.5967E-06	-7.6901E-07	5.2413E-07	1.6378E-06
3.0953E-06	-1.7437E-06	2.1022E-06	9.4737E-07
1.9501E-06	-2.3226E-06	1.3882E-06	3.7268E-07
8.7934E-07	-2.4796E-06	2.1304E-06	9.9371E-07
-5.2024E-07	-2.0741E-06	1.9378E-06	-2.2036E-07
-1.1838E-06	-1.2581E-06	2.0832E-06	9.8024E-07
-1.4518E-06	-4.0756E-07	2.9303E-06	-1.2145E-06
-1.0179E-06	2.8521E-07	3.1260E-07	-3.7608E-07
-4.3541E-07	5.0971E-07	2.0968E-06	8.5524E-07
2.5998E-07	2.9188E-07	2.3877E-06	-7.8683E-08
4.8328E-07	-1.1164E-07	2.6251E-06	-9.2331E-07
4.4148E-07	-5.0366E-07	1.4706E-06	-1.2969E-06
2.0966E-07	-8.3163E-07	1.1690E-06	-1.2558E-06
-1.5624E-07	-7.4493E-07	5.3581E-07	-3.9073E-07
-4.4832E-07	-5.7799E-07	1.2853E-06	-1.3908E-06
-5.6434E-07	-2.8632E-07	-1.9329E-06	-1.1666E-07
-4.4241E-07	-1.0063E-07	1.5332E-06	2.7896E-06
-3.3488E-07	2.9748E-08	1.8010E-06	-3.2335E-07
-2.4765E-07	3.5339E-08	1.2066E-06	1.1797E-06
-2.5648E-07	-3.7362E-08	2.0765E-06	6.4023E-08
-3.4866E-07	-1.6166E-08	1.3951E-06	4.5719E-07
-4.8450E-07	1.0451E-07	1.7177E-06	1.5308E-07
-4.8587E-07	1.7258E-07	1.4159E-06	9.8920E-07
-4.1129E-07	2.7578E-07	3.2847E-06	7.7231E-07
-2.8861E-07	3.8423E-07	2.9927E-06	-1.4943E-06
-3.1173E-08	3.0923E-07	1.0307E-06	-1.4877E-06
1.0323E-07	1.6482E-07	7.7950E-07	-5.5420E-07
9.5493E-08	7.3091E-08	5.2557E-07	5.4491E-08
-2.2767E-08	6.6775E-08	1.6439E-06	7.5373E-07
-1.2706E-07	-7.4145E-09	2.0601E-06	-7.1923E-07
-2.5625E-07	2.1661E-07	3.1266E-07	-9.9685E-07
-3.1442E-07	3.2732E-07	-1.8908E-07	1.3445E-06
-1.9867E-07	4.9574E-07	2.6921E-06	1.7461E-06
7.1958E-08	5.1701E-07	2.5572E-06	-6.2910E-07
2.2968E-07	4.2002E-07	1.6842E-06	-3.9564E-07
3.4957E-07	2.8595E-07	1.2060E-06	-5.8536E-07
3.6353E-07	5.2164E-08	1.3369E-06	5.9396E-07
2.7553E-07	-5.6972E-09	2.5164E-06	-4.6079E-07
1.4141E-07	4.7413E-08	1.1893E-06	-1.3598E-06
1.0284E-07	-8.8834E-09	2.1786E-07	-4.7192E-07
1.9227E-07	1.0064E-07	8.3611E-07	7.3363E-07
2.7091E-07	1.1269E-07	1.8161E-06	-1.7310E-07
2.5190E-07	-7.0185E-08	7.6350E-07	-3.0447E-07
3.1241E-07	-1.9224E-07	1.6040E-06	-2.3913E-07
2.1235E-07	-3.0229E-07	-3.9729E-07	-1.3546E-06
2.8210E-08	-3.7080E-07	-6.7177E-07	2.2347E-06
-1.2422E-07	-3.3431E-07	2.4260E-06	1.3613E-06
-1.9030E-07	-1.6117E-07	1.6498E-06	3.0725E-07
-2.2843E-07	9.2410E-08	1.8220E-06	-4.6923E-07
-1.4036E-07	1.2113E-07	-9.6663E-08	2.6389E-08
5.3115E-11	4.0496E-08	1.2110E-06	1.3088E-06
8.0186E-08	3.7111E-09	1.4726E-06	7.1010E-07
7.1903E-08	-8.6979E-08	1.7198E-06	-1.1459E-07
2.1804E-08	-2.0713E-07	-2.8734E-07	8.7853E-07
-1.4360E-07	-1.8650E-07	2.9405E-06	2.1215E-06
-2.8996E-07	-1.1415E-07	1.8129E-06	-1.0009E-06
-2.8619E-07	9.8466E-08	1.5697E-06	8.0919E-07
-1.7107E-07	1.8983E-07	1.1498E-06	-1.2222E-06
-8.4402E-08	2.4653E-07	-3.6347E-07	1.4874E-06
8.5138E-08	1.2084E-07	2.0767E-06	1.6443E-06
1.5465E-07	-1.0359E-07	2.6465E-06	8.5184E-07
1.0909E-07	-1.6715E-07	2.4318E-06	-1.3129E-06
-1.7327E-08	-3.0415E-07	-3.2165E-07	-5.8323E-07
-2.0489E-07	-2.1743E-07	6.4406E-07	1.3514E-06
-3.0109E-07	2.9170E-09	1.3607E-06	4.4166E-07
-3.3431E-07	1.0747E-07	1.9392E-07	1.0688E-06
-2.9430E-07	2.6073E-07	2.2177E-06	2.0437E-06
-1.3754E-07	3.5957E-07	1.7888E-06	-1.4256E-07
1.7840E-08	3.8106E-07	1.5466E-06	1.3962E-06
5.5150E-08	1.6868E-07	1.9700E-06	-5.6875E-07
6.9335E-08	1.4122E-07	2.1291E-07	1.1623E-06
2.4433E-08	1.5402E-08	1.9431E-06	7.7629E-07
-3.4522E-08	5.6639E-08	7.9721E-07	1.7045E-06
-1.2440E-07	7.7292E-08	3.8887E-06	7.1890E-07
-1.1157E-07	5.6496E-08	3.2765E-07	-1.6163E-06
-4.2394E-08	1.5473E-07	2.4745E-07	1.9421E-06
1.0701E-07	1.8209E-07	1.4859E-06	1.1533E-06
8.8830E-08	1.2626E-07	1.7220E-06	1.7619E-06
1.3001E-07	7.9657E-08	2.0167E-06	5.1924E-07
6.8731E-08	3.2509E-09	1.2093E-06	1.6962E-06
1.4781E-09	7.4827E-08	3.1143E-06	1.2790E-06
-5.8768E-08	1.0702E-07	2.2012E-06	-1.7121E-07
-3.0063E-08	1.9412E-07	1.2026E-06	5.8183E-08
1.1321E-08	2.0042E-07	5.7035E-07	1.5858E-06
7.4313E-08	1.7944E-07	3.0430E-06	2.1576E-06
1.8154E-07	1.2077E-07	2.7867E-06	-4.7362E-07
2.2043E-07	9.3029E-09	8.3842E-07	3.6745E-07
1.6471E-07	-1.7058E-07	1.7089E-06	1.8119E-06
4.1376E-08	-1.9789E-07	3.0929E-06	7.9717E-07
-5.1403E-08	-1.8257E-07	1.6438E-06	1.7999E-08
-1.8622E-07	-1.0320E-07	2.3966E-06	1.2628E-06
-1.6554E-07	5.4057E-08	2.4095E-06	-6.5864E-07
-1.1049E-07	1.3697E-07	8.1421E-07	2.6786E-07
5.4926E-08	1.0674E-07	1.0644E-06	9.3295E-07
1.5813E-07	1.4868E-07	1.8041E-06	2.2191E-06
1.8277E-07	3.4304E-08	3.7212E-06	4.8389E-07
1.7363E-07	-1.1021E-07	1.4444E-06	-9.9551E-07
1.0097E-07	-1.5408E-07	1.1156E-07	1.0172E-06
9.9977E-09	-1.8523E-07	1.9636E-06	2.9348E-06
-8.5173E-08	-2.0395E-07	4.1049E-06	8.9226E-07
-6.8669E-08	-1.1662E-07	2.3749E-06	-4.7012E-07
-1.2278E-07	-1.3942E-07	2.0573E-06	2.0632E-07
-1.6733E-07	-5.3200E-08	1.8959E-06	-1.8696E-07
-1.1649E-07	-3.8887E-08	6.7787E-07	7.4571E-08
-7.5208E-08	-2.1256E-08	1.0048E-06	2.4271E-06
-3.6266E-08	3.0202E-08	3.9256E-06	1.6171E-06
-1.3978E-07	8.4668E-08	2.9162E-06	-7.7292E-07
-1.0689E-07	8.0458E-08	1.2685E-06	-2.5569E-07
-8.8116E-08	6.7880E-08	1.5786E-06	1.3373E-06
-6.9267E-08	8.8297E-08	3.2059E-06	1.5474E-07
2.8499E-08	1.3918E-07	1.1385E-06	-6.4895E-07
1.3299E-08	2.0923E-08	1.4120E-06	7.6022E-07
4.9479E-08	-2.8422E-08	1.0819E-06	5.7465E-07
-1.2594E-08	-1.0842E-07	2.0745E-06	1.7097E-06
-5.9812E-08	-1.4105E-08	2.3910E-06	6.1984E-08
-1.2340E-07	9.2813E-09	1.3765E-06	6.8868E-07
-1.2334E-07	6.6676E-09	1.7453E-06	9.0280E-07
-9.0388E-08	1.4093E-07	2.1588E-06	1.3648E-06
-5.8737E-09	1.6682E-07	2.8084E-06	2.4110E-07
6.0463E-08	1.6359E-07	1.6676E-06	-1.3152E-07
5.8269E-08	1.0372E-07	1.0287E-06	2.0058E-07
9.9181E-08	-8.7799E-09	5.5092E-07	1.6317E-06
2.5726E-08	2.0662E-08	2.2851E-06	2.4793E-06
1.3421E-08	-6.4278E-08	3.2148E-06	1.2882E-06
-2.7016E-08	-4.5089E-08	2.7259E-06	6.1130E-07
2.2286E-08	-4.1022E-08	2.7818E-06	6.4597E-07
-1.1123E-08	8.8542E-09	2.2207E-06	-4.1124E-08
-3.7025E-08	4.4773E-08	1.9251E-06	1.3432E-06
2.9129E-08	1.3003E-07	3.6482E-06	3.3623E-07
3.7164E-09	1.6352E-08	1.5324E-06	-8.6883E-07
9.6362E-09	2.6212E-08	1.0627E-06	1.6740E-06
8.5210E-09	6.4696E-08	3.8992E-06	1.7961E-06
-8.6852E-09	-5.7637E-09	3.8438E-06	-1.2779E-06
2.8474E-08	2.2463E-08	1.4758E-06	-1.0454E-06
3.7220E-08	3.8838E-08	1.4437E-06	-4.0059E-07
1.4866E-07	7.4555E-08	8.6459E-07	2.3109E-07
9.9426E-08	-4.0712E-08	1.2806E-06	6.7007E-07
1.1562E-07	-5.6956E-08	1.6024E-06	1.5529E-06
7.9419E-08	-1.1531E-07	3.0389E-06	5.1652E-08
1.2741E-08	-1.6346E-07	5.9601E-07	2.4658E-07
-1.1649E-07	-1.9098E-07	2.9109E-06	1.1016E-06
-5.5099E-08	-6.4119E-08	6.3958E-07	-9.5473E-07
-9.6846E-08	-1.8114E-08	1.0263E-06	2.4986E-06
-7.0899E-08	-1.4404E-09	2.6554E-06	5.2129E-07
-8.4666E-08	-1.9422E-08	1.3301E-06	9.8108E-07
8.5752E-09	2.8086E-08	1.7937E-06	1.3234E-06
4.0146E-08	6.2917E-08	2.5678E-06	1.9347E-06
3.7516E-08	-1.6887E-08	3.3962E-06	3.2670E-07
-3.1413E-08	-7.3000E-08	2.2261E-06	-3.1214E-08
-2.2950E-08	-6.6931E-08	1.8206E-06	-3.3845E-07
-4.9444E-08	-5.9294E-08	1.4705E-07	6.1145E-07
-1.1872E-07	-2.4661E-08	1.4940E-06	3.2449E-06
-1.5893E-07	-7.8492E-08	4.5636E-06	1.4958E-06
-8.0125E-08	-1.8409E-08	2.3339E-06	-8.1270E-07
-4.3914E-08	9.4358E-09	1.6496E-06	1.0536E-06
2.9649E-09	1.0103E-07	2.0916E-06	1.2505E-06
-1.9417E-08	1.2705E-08	3.8502E-06	1.5484E-06
5.9078E-09	2.4797E-08	2.9133E-06	-1.7246E-06
-4.1286E-08	2.2959E-08	4.0699E-07	7.9501E-07
-4.0815E-08	1.9826E-08	2.4678E-06	1.2969E-06
-4.4704E-08	-1.4608E-08	2.2826E-06	1.2609E-06
1.2330E-08	-1.8247E-08	3.4008E-06	7.4334E-07
2.4126E-09	-5.8254E-08	2.7659E-06	-8.0382E-08
3.4204E-08	-4.8387E-08	2.0788E-06	-2.7983E-07
-1.6899E-08	-7.5261E-08	1.6502E-06	1.0114E-06
-3.2836E-08	-1.5536E-08	2.9643E-06	7.5693E-07
-3.1651E-08	2.8524E-08	2.6984E-06	6.1897E-07
-7.8773E-08	4.2986E-08	3.7076E-06	-3.4075E-07
-9.0857E-08	2.8788E-08	1.7754E-06	-1.4527E-06
-5.3538E-09	1.0384E-07	1.1396E-06	1.7329E-07
1.4438E-08	1.2292E-07	2.0009E-06	3.6706E-07
5.9817E-08	1.0781E-07	1.7101E-06	-1.1259E-07
7.0906E-08	3.3843E-08	1.5506E-06	4.8568E-07
1.1229E-07	-4.3089E-09	1.6526E-06	2.6313E-07
1.0489E-07	-6.9030E-09	1.6573E-06	1.1310E-06
8.6369E-08	-6.2577E-08	2.8690E-06	4.0375E-07
5.8380E-08	-1.0388E-07	2.1301E-06	-5.8537E-07
3.1197E-09	-1.3966E-07	8.1184E-07	-7.1639E-07
8.5878E-09	8.2774E-09	3.2753E-07	1.2185E-06
-2.3178E-08	-4.4304E-08	1.3825E-06	1.1459E-06
5.9997E-09	-3.0305E-08	1.5462E-06	2.6008E-06
-4.7956E-09	-7.9305E-08	4.5756E-06	4.6013E-07
2.9855E-08	-1.2361E-07	6.0840E-07	-1.4923E-06
9.2363E-09	-9.5722E-08	6.2260E-07	1.9469E-06
1.6857E-08	-1.2486E-07	1.8237E-06	1.6312E-06
-1.0882E-07	-1.5501E-07	2.5270E-06	2.0752E-06
-6.2521E-08	-1.1788E-07	3.2689E-06	1.2658E-06
-2.5593E-08	-6.2064E-08	3.8529E-06	6.0471E-07
-1.0151E-07	-6.2218E-08	3.0836E-06	-1.3852E-06
-8.2367E-08	-8.6995E-08	8.0043E-07	-5.6945E-07
-2.6212E-08	1.0903E-08	1.6531E-06	1.0940E-06
-2.9255E-08	4.5581E-08	2.2611E-06	4.6098E-08
-8.2325E-08	-1.0876E-08	1.4326E-06	4.6531E-07
-3.6829E-08	-3.6273E-08	1.9501E-06	2.6934E-07
-3.9231E-08	1.9204E-08	1.0041E-06	1.0114E-06
-9.0130E-09	-3.3829E-08	3.1096E-06	1.2157E-06
-1.6448E-09	-4.6897E-08	1.9583E-06	-6.3646E-07
-7.2090E-08	-9.5412E-09	1.7921E-06	4.6476E-07
-1.8786E-08	9.5613E-10	1.3433E-06	-6.6691E-07
-3.2090E-08	1.1693E-08	1.7068E-07	7.9817E-07
-4.6086E-08	2.2095E-08	1.0380E-06	1.6621E-06
1.5638E-08	-1.2367E-08	2.0298E-06	1.7107E-06
-1.7665E-08	3.0790E-09	1.8970E-06	6.8086E-07
-4.1182E-08	1.8359E-08	1.5538E-06	1.5838E-06
-5.0267E-08	-3.0134E-08	2.5244E-06	9.3016E-07
-7.4964E-08	-3.8593E-08	1.3293E-06	6.8937E-07
