jMRUI Data Textfile

Filename: Export_to_jmrui.txt

PointsInDataset: 2048
DatasetsInFile: 1
SamplingInterval: 0.250000
ZeroOrderPhase: 0E0
BeginTime: 0E0
TransmitterFrequency: 1.2326E8
MagneticField: 2.8936E0
TypeOfNucleus:  
NameOfPatient:  
DateOfExperiment:  
Spectrometer:  
AdditionalInfo: 
SignalNames:  


Signal and FFT
sig(real)	sig(imag)	fft(real)	fft(imag)
Signal 1 out of 1 in file
2.1336E-06	-4.2093E-07	1.7279E-06	-7.6790E-07
9.4143E-07	-4.0499E-07	6.3739E-07	-9.8063E-07
6.4169E-07	-7.5466E-07	4.1282E-07	3.6682E-08
2.6359E-07	-8.2105E-07	2.1746E-06	9.5766E-07
-2.5804E-07	-7.0417E-07	2.3401E-06	-2.1399E-06
-4.7249E-07	-4.6117E-07	-6.2998E-07	-2.7793E-07
-6.0440E-07	-1.1505E-07	1.8022E-06	9.1891E-07
-4.6992E-07	1.0395E-07	1.9400E-06	3.3117E-07
-2.1044E-07	1.3647E-07	3.2093E-06	-5.5842E-07
5.8200E-08	7.6504E-08	1.5768E-06	-1.6293E-06
1.3511E-07	-9.5649E-08	1.8068E-06	-6.9562E-07
9.3416E-08	-2.9069E-07	1.9276E-06	-1.5956E-06
-3.2486E-08	-4.3445E-07	8.8737E-07	-2.3834E-06
-1.4722E-07	-3.3886E-07	-1.1875E-06	-9.7621E-07
-2.5357E-07	-2.1507E-07	3.0596E-07	1.2992E-06
-3.0279E-07	-1.1459E-07	1.8775E-06	7.5182E-07
-2.3987E-07	-6.8984E-08	2.6326E-06	-5.8035E-07
-2.0471E-07	2.1669E-08	8.5235E-07	-1.8164E-06
-1.1826E-07	8.2374E-08	-8.1486E-08	1.9523E-07
-1.3670E-07	1.2872E-07	1.5063E-06	8.4159E-07
-1.8255E-07	5.4176E-09	2.0709E-06	6.3134E-08
-2.3270E-07	3.1939E-08	2.2186E-06	-3.8219E-07
-2.2301E-07	4.4897E-08	1.8221E-06	-1.2105E-06
-2.2676E-07	5.8677E-08	1.1236E-06	-6.9096E-07
-1.7685E-07	4.9373E-08	1.5489E-06	-8.0830E-07
-4.0736E-08	2.8852E-08	9.8837E-07	-6.8414E-07
8.6021E-09	-4.4677E-08	1.7608E-06	-5.9568E-07
-4.6805E-08	3.5540E-08	1.2599E-06	-1.9016E-06
-8.6164E-08	4.4570E-08	-6.6456E-07	-1.4593E-06
-1.1564E-07	7.9375E-08	-5.3360E-07	8.3779E-07
-1.3565E-07	1.3803E-07	1.0337E-06	8.1992E-07
-1.6322E-07	3.1202E-07	1.4247E-06	8.3891E-07
-8.1470E-08	2.4932E-07	2.2720E-06	-4.6114E-07
3.2321E-08	2.6578E-07	6.6565E-07	-7.0346E-07
1.1021E-07	2.0584E-07	9.7823E-07	-1.5938E-07
1.0353E-07	5.4402E-08	3.2792E-07	3.9756E-07
1.8215E-07	4.2334E-08	2.2560E-06	6.8816E-07
9.1346E-08	7.7019E-08	9.7899E-07	-1.4005E-06
6.5265E-08	6.0938E-08	-1.3524E-07	8.8435E-07
7.7973E-08	1.2437E-07	1.9086E-06	1.2337E-06
8.1870E-08	1.5347E-07	2.1167E-06	-8.2036E-08
1.1141E-07	9.8547E-08	1.4228E-06	-2.1888E-07
1.0847E-07	3.9040E-09	1.3583E-06	-6.3380E-08
1.4270E-07	-1.3731E-07	1.2247E-06	1.7235E-07
1.1611E-07	-2.0102E-07	1.3961E-06	2.3424E-07
4.7910E-08	-2.0772E-07	1.6848E-06	7.9285E-07
-3.3096E-08	-1.5304E-07	2.7447E-06	-4.3857E-07
-5.8381E-08	-9.3728E-08	1.0303E-06	-7.9840E-07
-3.8648E-08	1.0294E-07	1.5745E-06	-4.5290E-07
2.6615E-08	1.6903E-07	-3.8198E-07	-3.4349E-07
4.9694E-08	6.3454E-08	1.3903E-06	2.3756E-06
6.9799E-08	1.0433E-08	2.7613E-06	4.6042E-07
1.1147E-07	-7.9805E-08	2.9987E-06	4.2551E-07
1.2389E-08	-1.8335E-07	2.6406E-06	-1.9925E-06
-5.0736E-08	-2.5186E-07	9.4477E-08	-5.9115E-07
-1.5085E-07	-1.8772E-07	1.6997E-06	7.7802E-07
-1.7962E-07	-4.3466E-08	2.4166E-06	-4.1543E-07
-1.4271E-07	7.1602E-08	1.1840E-06	-1.1364E-06
-6.0839E-08	1.1781E-07	8.0666E-07	3.6428E-07
1.0274E-07	1.3880E-07	1.7881E-06	1.8444E-07
6.2227E-08	9.9829E-08	1.9196E-06	2.5556E-07
4.0356E-08	-6.6640E-09	2.1818E-06	-8.7024E-07
1.3182E-08	-1.6534E-07	1.0666E-06	-2.1452E-07
2.5516E-08	-1.6303E-07	2.1637E-06	-7.7609E-07
-9.8204E-08	-1.7006E-07	1.1402E-07	-6.9561E-07
-1.8864E-07	-1.3407E-07	1.7616E-06	3.9690E-07
-2.0286E-07	-1.2258E-08	-1.3705E-07	-1.0880E-06
-1.1579E-07	1.2796E-07	2.4207E-07	2.9972E-06
-1.0735E-07	2.0137E-07	3.8795E-06	1.4652E-06
-9.1638E-09	2.0017E-07	3.5241E-06	-3.5895E-07
4.3794E-08	1.0533E-07	2.5257E-06	-2.1037E-06
2.4745E-08	8.7526E-08	2.1641E-07	-6.5347E-07
-1.4499E-08	1.0607E-07	1.7767E-06	5.2681E-07
6.0385E-08	5.6055E-08	2.1002E-06	-5.9188E-08
8.8418E-08	6.6119E-08	2.5456E-06	-6.7413E-07
8.9540E-08	4.8666E-08	1.7834E-06	-1.4902E-06
6.2209E-08	5.3776E-09	5.3412E-07	-1.6187E-06
9.4169E-08	4.1332E-08	-3.8614E-07	4.9110E-07
2.5248E-08	8.2069E-09	1.7734E-06	1.0731E-06
4.5525E-08	1.3269E-08	2.0127E-06	5.2724E-07
3.3727E-08	3.0853E-08	3.2676E-06	-7.6919E-07
-2.6496E-08	8.0525E-08	5.4381E-07	-2.0326E-06
-4.6949E-09	9.5560E-08	6.0579E-07	3.4014E-07
4.1006E-08	9.6503E-08	9.8691E-07	-2.7776E-07
1.0476E-07	1.3305E-07	1.0751E-06	6.9196E-07
1.3214E-07	2.0906E-08	1.7776E-06	1.6836E-07
1.1763E-07	-3.5229E-08	1.8479E-06	-6.7584E-08
1.3989E-07	-6.9683E-08	1.2135E-06	-6.4552E-07
1.1521E-07	-7.9169E-08	9.5407E-07	2.2510E-07
8.0546E-08	-3.3018E-08	7.8888E-07	4.5169E-07
2.7611E-08	-7.8858E-08	2.3857E-06	1.9997E-06
-2.5055E-08	-2.2782E-08	3.9416E-06	-1.4665E-06
-8.5249E-09	1.0474E-07	-2.3958E-09	-1.5642E-06
4.8135E-08	-1.8928E-08	1.2795E-06	9.5575E-07
5.0991E-08	3.7069E-08	1.7370E-06	-3.6083E-07
-1.9280E-09	-6.3153E-08	1.6413E-06	3.6069E-07
6.8243E-08	-7.1259E-08	2.1127E-06	-9.5712E-07
3.8706E-08	-8.3754E-08	4.4100E-07	-3.7090E-07
5.4470E-08	-5.0594E-08	1.5408E-06	4.9674E-08
2.7677E-08	-4.8431E-08	4.5425E-08	-3.5059E-08
-1.0438E-08	-5.9812E-08	1.8425E-06	2.2190E-06
-3.6983E-08	-7.6320E-08	3.0855E-06	-2.6564E-07
-5.4556E-08	-7.6086E-08	2.3369E-06	-3.2794E-07
-2.2822E-08	-7.6033E-08	1.7885E-06	-2.4520E-06
3.9930E-09	-8.7687E-08	-1.8543E-06	-3.0280E-07
9.6822E-10	1.6291E-08	6.0360E-07	2.6941E-06
-9.0430E-09	-1.3610E-09	2.3815E-06	2.1835E-06
-2.0873E-08	-1.4616E-08	4.0423E-06	5.5562E-07
-2.0269E-08	5.6818E-08	1.9754E-06	-1.0096E-06
-8.6079E-08	1.8527E-08	2.4494E-06	4.6256E-07
-2.5218E-08	1.6671E-08	2.1837E-06	-1.3764E-06
2.3689E-09	4.1234E-08	9.7781E-07	-3.3424E-08
1.1759E-08	1.8250E-08	1.6103E-06	9.6433E-08
-4.8826E-08	-5.3542E-08	2.0894E-06	6.1724E-07
-1.9975E-08	-6.0073E-08	2.2150E-06	-1.0516E-06
-7.9057E-08	-5.8196E-08	4.2363E-07	5.7835E-07
-2.6273E-08	-3.1590E-08	3.2539E-06	1.1956E-06
6.7644E-09	4.4430E-08	2.9072E-06	-1.5493E-06
9.3753E-09	6.0136E-08	3.9066E-07	-1.0217E-06
7.3503E-09	8.4804E-08	1.3552E-06	1.7296E-06
-4.9315E-08	4.2414E-08	3.7247E-06	-1.9362E-07
3.8604E-08	1.0165E-08	1.8308E-06	-9.5293E-07
8.4739E-08	2.9346E-08	2.4829E-06	-8.8203E-07
3.8240E-08	-3.7183E-08	6.0101E-07	-1.2700E-06
5.2814E-09	-2.8186E-08	1.4364E-06	7.6760E-07
5.9190E-08	-1.0318E-08	2.2954E-06	-6.8248E-07
1.5690E-08	-3.0815E-08	7.6428E-07	-6.7910E-07
3.6646E-08	-4.5446E-08	1.1991E-06	1.4121E-06
-3.5422E-08	3.7320E-08	3.8667E-06	2.9396E-09
5.7773E-09	3.3982E-08	1.3042E-06	-1.7910E-06
-7.8901E-09	2.0979E-08	1.5660E-06	6.6161E-07
-3.4309E-10	9.7496E-08	2.7243E-06	-6.6786E-07
1.1358E-07	3.9384E-08	2.3884E-06	-1.2008E-06
1.1028E-08	4.3050E-08	9.6642E-07	-2.4261E-06
7.5573E-08	-3.3191E-09	-5.2390E-07	-8.6945E-08
1.2325E-07	-2.5250E-08	1.1272E-06	4.7025E-07
4.9901E-08	-1.1391E-07	9.3971E-07	6.3519E-07
8.3926E-08	-2.3981E-08	2.2050E-06	7.6448E-07
-5.9450E-09	-9.1459E-08	2.1271E-06	6.5937E-08
3.8802E-08	-6.5889E-08	2.8389E-06	-2.4346E-07
6.3853E-09	-4.5174E-08	1.7734E-06	-1.6000E-06
3.6914E-08	2.1732E-09	1.3380E-06	-4.2428E-07
-3.1220E-08	-5.9155E-08	1.4189E-06	-1.6091E-06
-6.1846E-08	-1.7116E-08	-3.6579E-07	-3.0015E-07
-5.1248E-08	-7.3015E-08	1.0159E-06	4.2310E-07
-3.8673E-08	-6.7114E-08	1.6860E-07	5.7124E-07
-7.9523E-08	-5.1121E-08	1.9303E-06	2.1149E-06
-1.9247E-08	1.0707E-08	3.1944E-06	-6.2602E-08
-7.6615E-08	1.5469E-09	1.3637E-06	-5.7373E-07
-3.6648E-08	1.1432E-08	2.0941E-06	9.0950E-07
-2.4830E-08	3.1996E-08	2.7548E-06	-1.3556E-06
2.1073E-08	7.2160E-08	-8.2837E-08	-3.2830E-07
-2.2808E-08	1.8712E-09	2.0579E-06	1.3210E-06
-4.4347E-08	2.0646E-09	2.1023E-06	2.5508E-07
-1.2631E-08	2.9545E-08	3.2611E-06	3.5724E-07
7.1311E-08	-3.6592E-09	2.4316E-06	-1.5242E-06
1.4328E-08	-5.8771E-08	1.8936E-06	-5.4407E-07
3.4786E-08	-1.0813E-08	2.0912E-06	-1.4090E-06
-1.9618E-08	-1.2296E-08	1.0569E-06	-1.5763E-06
3.4767E-08	-1.7262E-08	-2.6188E-07	-7.2141E-07
-1.7836E-08	1.5844E-08	8.4543E-07	1.2968E-06
1.8598E-08	5.4230E-08	2.2537E-06	2.6726E-07
3.2347E-08	-3.1069E-08	2.1068E-06	-4.8424E-07
-5.1018E-08	-5.0182E-08	1.1430E-06	-9.4093E-07
-3.1793E-08	-4.7125E-08	1.1279E-06	-2.2628E-08
-3.2671E-08	1.5342E-08	7.3294E-07	-3.7864E-07
-1.3639E-07	-1.3719E-08	1.2949E-06	1.3688E-06
-1.3058E-08	5.4849E-08	2.7273E-06	-5.3825E-07
-4.5967E-09	7.2562E-08	8.8461E-07	-5.7166E-07
2.2804E-08	1.2872E-07	1.1792E-06	-4.0042E-07
2.4179E-10	6.4583E-08	-2.9762E-07	7.9682E-07
1.1709E-07	3.9732E-08	2.7067E-06	2.5561E-06
8.1754E-08	2.1685E-08	3.6355E-06	-8.1949E-07
4.3497E-08	-4.7961E-08	1.4717E-06	-9.3175E-07
7.7532E-08	-7.0072E-08	1.5159E-06	-3.4211E-07
1.8438E-08	-3.4240E-08	1.2612E-06	-2.4529E-07
5.9020E-08	2.0175E-08	1.0932E-06	2.0159E-07
-5.5235E-10	-5.7082E-08	1.8912E-06	9.6053E-07
-3.6745E-08	-6.8161E-08	2.6564E-06	-5.1858E-07
-9.3809E-09	-5.6307E-08	9.8971E-07	-3.6278E-07
-2.5473E-08	-1.0994E-08	2.0283E-06	6.1842E-07
-8.5183E-10	-2.8618E-08	2.4773E-06	-4.4672E-07
5.0119E-08	-8.1282E-08	1.5111E-06	-1.4507E-06
1.6937E-08	-5.4509E-08	-2.3870E-07	2.4595E-07
1.1557E-08	-6.7717E-08	2.1877E-06	1.4100E-06
7.7465E-09	-5.1239E-08	1.7492E-06	-1.7970E-07
-7.5670E-08	-7.1235E-08	2.1713E-06	1.1162E-06
-7.4102E-08	-8.3971E-09	2.9627E-06	-4.0756E-07
-9.5179E-08	2.1622E-08	2.1075E-06	-3.2174E-07
-1.5262E-07	-4.3905E-08	2.7974E-06	-7.2816E-07
-5.4116E-08	5.5747E-09	1.6348E-06	-1.9523E-06
1.1851E-08	2.1619E-08	2.8227E-07	-5.5748E-07
-5.7729E-08	7.5236E-08	1.2861E-06	-1.3190E-07
-6.6581E-08	5.1503E-08	5.7576E-07	6.5109E-08
-3.4859E-08	1.3153E-08	1.6621E-06	3.8525E-07
-6.3909E-08	-1.3082E-08	2.5725E-07	2.7611E-07
1.8772E-08	1.1170E-08	2.2610E-06	2.6039E-06
2.8107E-08	-1.7667E-08	3.8874E-06	-1.3165E-07
-2.0754E-08	-1.1875E-08	2.3280E-06	-8.5842E-07
-5.9128E-08	2.8556E-08	1.9336E-06	-2.1055E-07
-5.4946E-08	6.1479E-10	2.9428E-06	-6.6709E-07
-5.6689E-08	3.1325E-08	9.1694E-07	-1.4537E-06
-3.7997E-08	1.0330E-09	2.1071E-06	9.8299E-07
-1.0096E-07	-4.4930E-08	2.9253E-06	-2.0113E-06
-6.9433E-08	-1.3120E-08	1.9637E-07	-1.0882E-06
