jMRUI Data Textfile

Filename: Export_to_jmrui.txt

PointsInDataset: 2048
DatasetsInFile: 1
SamplingInterval: 0.250000
ZeroOrderPhase: 0E0
BeginTime: 0E0
TransmitterFrequency: 1.2326E8
MagneticField: 2.8936E0
TypeOfNucleus:  
NameOfPatient:  
DateOfExperiment:  
Spectrometer:  
AdditionalInfo: 
SignalNames:  


Signal and FFT
sig(real)	sig(imag)	fft(real)	fft(imag)
Signal 1 out of 1 in file
4.2154E-06	7.7215E-07	-2.9079E-06	7.7149E-07
6.9650E-06	-4.6461E-07	-3.3028E-06	-1.1061E-06
4.8541E-06	-2.6805E-06	-1.0354E-06	-1.7487E-07
2.8333E-06	-3.6877E-06	-2.1558E-06	-1.0359E-07
-7.5640E-08	-3.9306E-06	-1.8281E-06	2.3676E-07
-1.9471E-06	-2.5147E-06	-1.6300E-06	-1.4117E-07
-2.8453E-06	-1.0039E-06	-1.0638E-06	1.0419E-07
-2.1129E-06	6.5330E-07	-9.2337E-07	5.7063E-07
-8.8223E-07	1.3596E-06	-2.0004E-08	8.0403E-08
6.4640E-07	1.4206E-06	-2.4903E-06	7.1508E-07
1.4660E-06	6.2347E-07	-2.5512E-06	-4.0945E-07
1.8743E-06	-1.8025E-07	-1.6789E-06	1.5877E-06
1.3663E-06	-1.0335E-06	-3.5151E-06	1.7627E-06
6.3422E-07	-1.3261E-06	-2.0601E-07	3.4253E-07
-1.6114E-07	-1.3154E-06	-2.3532E-06	4.4702E-07
-5.2328E-07	-9.1878E-07	-2.4857E-06	2.3323E-07
-7.5186E-07	-6.0159E-07	-2.4060E-06	9.4766E-07
-6.1053E-07	-2.7400E-07	-1.4330E-06	1.3396E-06
-5.8667E-07	-2.0489E-07	-1.5136E-06	-5.5140E-07
-5.3318E-07	-1.3218E-07	-1.8614E-06	2.7969E-06
-7.1297E-07	-7.2346E-08	-1.6018E-06	-1.1137E-07
-7.4738E-07	1.7557E-07	-1.9859E-06	1.6077E-06
-7.6112E-07	4.0718E-07	-1.5962E-06	5.6678E-07
-4.5700E-07	5.6925E-07	-1.9317E-06	9.8529E-07
-1.3089E-07	5.3141E-07	-1.1911E-06	3.3677E-07
2.5643E-07	3.0630E-07	-2.2572E-06	-8.5017E-07
3.5847E-07	-7.0794E-08	-2.6511E-06	1.4602E-06
3.6755E-07	-3.2895E-07	-3.3233E-06	1.7522E-06
-1.6627E-08	-4.5550E-07	-2.3427E-06	-5.3149E-07
-3.0120E-07	-3.6009E-07	-1.7125E-06	1.4532E-06
-6.2677E-07	-1.3956E-07	-1.8295E-06	5.3418E-07
-6.8253E-07	2.2250E-07	-7.3997E-07	2.9286E-08
-5.9585E-07	5.0685E-07	-1.5521E-06	1.0254E-07
-3.2936E-07	6.3196E-07	-2.4227E-06	1.4662E-06
-5.9331E-08	6.2797E-07	-7.3329E-07	3.3242E-07
1.9421E-07	5.1552E-07	-1.6628E-06	1.9468E-06
2.8978E-07	3.5470E-07	-4.5218E-07	5.4294E-07
3.2062E-07	2.4959E-07	-1.0991E-06	4.3106E-07
2.8619E-07	1.4059E-07	-9.2418E-07	1.0464E-06
3.0525E-07	9.5653E-08	-1.9444E-06	-3.2713E-07
3.0167E-07	-5.8766E-08	4.6406E-07	1.9877E-06
3.7435E-07	-1.2972E-07	-8.5763E-07	-7.4194E-07
3.1731E-07	-3.3557E-07	-4.2578E-07	-2.6634E-07
2.7426E-07	-5.2998E-07	-9.5510E-07	-9.7699E-07
6.1681E-08	-6.1088E-07	4.3360E-07	1.9661E-06
-2.0107E-07	-5.9096E-07	-1.1577E-06	3.2329E-07
-4.4166E-07	-4.7742E-07	-6.2360E-07	8.3137E-07
-5.3747E-07	-1.8276E-07	-2.1323E-06	1.4501E-06
-4.9850E-07	7.1208E-08	-1.8631E-07	1.0154E-06
-2.1195E-07	1.7919E-07	-3.2812E-06	-3.6853E-07
-4.6736E-08	1.8449E-07	-1.3797E-06	1.0344E-06
1.5073E-07	2.3604E-08	-3.4068E-06	1.0134E-06
9.5989E-08	-2.0627E-07	-1.1125E-07	1.5758E-06
-4.6737E-08	-4.1495E-07	-1.0051E-06	9.4334E-07
-2.9709E-07	-5.3983E-07	-8.0091E-07	1.5410E-07
-5.6698E-07	-4.0784E-07	-1.7208E-06	2.9404E-07
-7.1958E-07	-2.0364E-07	-1.7372E-06	4.8552E-07
-6.6942E-07	3.1535E-08	-1.4275E-06	1.1932E-06
-4.2754E-07	2.8495E-07	-5.6156E-07	2.9321E-07
-2.4271E-07	2.9337E-07	-5.3815E-07	1.3481E-07
-3.4223E-08	2.1399E-07	-1.7915E-07	7.3965E-07
5.9084E-08	4.4070E-08	-9.6243E-07	5.7635E-07
1.6548E-09	-1.2864E-07	-7.3604E-07	3.3079E-06
-1.4947E-07	-2.4946E-07	-2.5501E-07	1.7245E-06
-3.5214E-07	-1.6926E-07	2.2146E-07	1.4193E-06
-4.7694E-07	-5.5991E-08	-8.6356E-07	3.6354E-07
-4.9346E-07	1.0427E-07	-1.6778E-06	7.4110E-07
-3.2966E-07	1.5778E-07	4.8950E-07	1.2248E-06
-2.3476E-07	2.5547E-07	-1.8744E-06	2.2212E-06
-1.1346E-07	1.8463E-07	-1.4673E-06	1.0712E-06
-1.5121E-07	2.5612E-08	-1.1796E-06	1.4075E-06
-2.0579E-07	-5.1855E-08	4.3603E-07	2.6570E-06
-3.0366E-07	-5.2928E-08	-8.9651E-07	3.1228E-06
-3.8082E-07	7.9049E-08	-3.3483E-07	7.2891E-07
-4.0732E-07	1.8106E-07	2.7995E-08	2.4698E-06
-3.1362E-07	2.7913E-07	-2.0421E-06	1.9212E-06
-1.6959E-07	2.9567E-07	-1.4004E-06	-6.3861E-07
-3.1410E-08	2.7214E-07	-1.5246E-06	1.7278E-06
1.2378E-08	1.6120E-07	-2.8512E-07	9.5978E-07
1.1559E-08	2.4044E-08	-6.7554E-07	5.9663E-07
-1.3811E-07	-2.9858E-08	-5.0743E-07	7.8393E-07
-2.4370E-07	-1.2267E-08	-1.6492E-06	4.9151E-07
-3.1839E-07	9.2656E-08	-1.0498E-06	1.5278E-06
-2.1794E-07	2.0935E-07	-3.7923E-06	1.3225E-06
-1.1959E-07	2.6491E-07	-2.3930E-06	1.3990E-06
2.7390E-08	2.5012E-07	-1.4317E-06	9.1417E-07
1.2806E-07	8.7497E-08	2.8495E-07	2.7953E-06
1.3838E-07	-1.1272E-07	-6.3762E-07	9.3677E-07
4.2257E-08	-1.9842E-07	-8.2417E-07	8.9681E-07
-1.1926E-07	-2.5056E-07	-1.5434E-06	-1.8835E-07
-2.8470E-07	-1.7092E-07	-1.9968E-06	1.2416E-06
-3.7711E-07	1.8605E-08	9.1869E-08	6.3497E-07
-3.0311E-07	1.6906E-07	-2.9324E-07	3.0096E-06
-1.6959E-07	2.7649E-07	-7.3476E-07	2.6538E-06
-1.8875E-08	3.1639E-07	-1.4438E-06	9.2956E-07
1.5179E-07	2.1324E-07	3.8538E-07	2.4659E-06
1.8635E-07	2.2129E-08	-5.3023E-07	1.9429E-06
7.0043E-08	-1.1676E-07	-4.2426E-07	9.4720E-07
1.0735E-09	-2.0381E-07	-4.1433E-07	1.2406E-06
-1.2023E-07	-2.4650E-07	-1.8299E-06	1.0868E-06
-2.3711E-07	-2.0552E-07	-1.2209E-06	2.7763E-06
-2.4130E-07	-1.2540E-07	-4.8381E-07	2.1876E-06
-2.0833E-07	-9.7286E-08	1.7871E-07	1.1582E-06
-2.5596E-07	-6.7294E-08	-7.5073E-07	4.8566E-07
-2.5263E-07	-5.5583E-08	-8.5071E-07	2.0797E-06
-3.0238E-07	-3.9008E-08	-8.6779E-08	2.6452E-06
-2.9639E-07	-1.3333E-08	1.8169E-07	2.1332E-06
-2.9707E-07	9.9255E-08	-2.3456E-07	-5.6172E-07
-2.4957E-07	1.4029E-07	-5.0091E-07	6.7399E-07
-1.8582E-07	1.8374E-07	-7.7635E-07	1.6364E-06
-6.5477E-08	1.8515E-07	4.6995E-07	2.2652E-06
7.3334E-08	1.3066E-07	3.8845E-07	1.2625E-06
5.1421E-08	2.8111E-08	-2.0746E-06	9.4520E-07
-2.5682E-08	-6.7159E-08	8.7503E-07	7.8173E-07
-1.1803E-07	-1.0792E-07	1.0395E-06	5.6833E-07
-2.2603E-07	-1.2920E-07	-5.1255E-07	2.6600E-06
-3.2504E-07	-4.7499E-08	-1.8370E-06	4.4291E-07
-3.0818E-07	4.2104E-08	-1.4073E-06	1.3419E-06
-2.3269E-07	1.5623E-07	2.8780E-07	1.9499E-06
-7.5102E-08	1.6698E-07	-2.7555E-06	1.2713E-06
-8.2161E-09	1.6456E-07	-1.8266E-07	1.3250E-06
6.8425E-08	6.6795E-08	-1.6047E-06	2.9699E-06
1.2201E-08	-1.1986E-08	-1.1408E-06	3.1274E-06
-3.3847E-08	-9.2153E-08	-7.9721E-07	1.3482E-06
-1.2678E-07	-1.3359E-07	2.8073E-08	1.6327E-06
-1.7250E-07	-6.0026E-08	-1.2431E-06	1.1676E-06
-2.2181E-07	1.0756E-08	-2.1333E-07	2.1665E-06
-1.5603E-07	8.8171E-08	-9.0813E-07	1.6179E-06
-1.1178E-07	1.1490E-07	-1.8048E-06	1.5763E-06
-8.1911E-08	1.2240E-07	-5.5967E-07	1.7744E-06
-9.0235E-08	8.5621E-08	-1.3686E-06	1.3449E-06
-9.9526E-08	5.1294E-08	-3.3472E-07	2.2689E-06
-8.2872E-08	1.2792E-08	2.1992E-07	2.5762E-06
-7.8816E-08	1.4356E-09	-2.2411E-06	7.9607E-07
-1.1386E-07	4.8395E-08	5.8838E-08	2.4782E-06
-9.4774E-08	5.5067E-08	3.9654E-07	2.4638E-06
-4.1270E-08	1.4854E-08	-2.3679E-07	3.7732E-07
1.0494E-08	3.3693E-09	2.4590E-07	1.0551E-06
8.0137E-09	-1.5207E-08	-9.4439E-07	4.8267E-07
3.3037E-08	-4.4809E-08	-1.5055E-06	1.6214E-06
-5.4705E-08	-1.1174E-07	3.7168E-07	2.4105E-07
-1.2182E-07	-1.3696E-07	6.4043E-07	2.2373E-06
-1.9047E-07	-1.2010E-07	-3.3513E-07	2.5727E-06
-2.0185E-07	-1.0061E-07	7.9573E-08	1.7467E-06
-2.3937E-07	2.1846E-10	9.2905E-07	8.8173E-07
-1.9185E-07	4.0469E-08	-1.3001E-06	8.1992E-07
-8.1653E-08	4.3419E-08	-1.4650E-06	-4.8966E-07
-4.6447E-08	5.0812E-08	-2.5255E-07	8.0353E-07
-6.7100E-08	1.0319E-08	-3.9044E-07	6.7014E-07
-5.1112E-08	-3.5921E-08	-1.7100E-06	2.0736E-06
-9.0421E-08	-1.1107E-07	6.9928E-07	1.8088E-06
-1.4844E-07	-7.8494E-08	-1.1924E-06	1.0747E-06
-1.6466E-07	-3.2405E-08	-2.8007E-07	5.7043E-08
-1.4344E-07	-1.6680E-08	-8.6512E-07	2.4105E-06
-1.4483E-07	2.6438E-08	-1.2846E-07	2.1625E-06
-1.0902E-07	7.1077E-08	2.3361E-07	2.2646E-06
-1.0105E-07	5.7025E-08	2.1011E-07	2.1435E-06
-8.4731E-08	7.1546E-08	3.6600E-08	7.9616E-07
-6.4953E-08	6.3154E-10	5.5160E-07	1.1663E-06
-1.8424E-08	1.8027E-09	-2.1222E-06	2.1696E-06
-2.8555E-08	-1.7747E-08	-4.9024E-07	1.4637E-06
-4.1505E-08	-9.3048E-09	4.5479E-07	1.7980E-06
-3.3413E-08	-1.7057E-08	-3.7885E-07	3.2659E-06
-7.9977E-08	-2.9466E-08	-2.8824E-07	2.3950E-06
-7.0602E-08	-1.3379E-08	1.7263E-07	3.0215E-06
-8.3297E-08	-1.6420E-08	1.5431E-07	1.1499E-06
-1.2815E-07	-3.8710E-08	1.2146E-06	1.1049E-06
-1.0998E-07	3.4411E-08	-4.9217E-07	2.2896E-06
-1.1341E-07	4.8866E-08	-5.0536E-07	2.3881E-06
-6.8435E-08	9.8362E-08	2.7413E-07	3.0391E-06
-5.2731E-08	5.9426E-08	-2.5989E-07	3.3972E-06
-1.3253E-08	8.3151E-08	1.7001E-07	3.1052E-06
-4.0882E-08	3.1387E-08	-1.6744E-06	2.0716E-06
3.8409E-08	-5.6106E-09	-9.8030E-07	2.6636E-06
-3.8265E-08	1.3760E-09	-2.4485E-06	3.2316E-06
3.4670E-09	2.5827E-09	1.9721E-06	9.2558E-07
-4.6977E-08	-5.9232E-09	-4.5136E-07	1.3365E-06
-1.2505E-08	-6.1099E-09	-5.6684E-08	3.3348E-06
-3.4469E-08	8.2172E-10	1.1790E-06	3.6248E-06
8.5913E-09	4.8738E-08	-1.0635E-06	1.1865E-06
-5.4225E-08	-1.5003E-08	2.9914E-07	2.2084E-06
3.2794E-08	-1.5139E-08	6.0706E-07	2.9941E-06
3.1928E-09	-8.3179E-09	2.1340E-07	2.4449E-06
-2.2206E-08	-3.9857E-08	-1.9882E-06	2.4900E-06
-4.2503E-09	-3.7734E-08	-5.0673E-07	3.5941E-06
-2.9150E-08	-6.8512E-08	-6.9067E-07	2.0929E-06
-2.1394E-08	-2.5349E-08	-1.0334E-06	3.3092E-06
-1.1230E-08	-1.9357E-08	-7.5026E-07	3.0571E-06
-3.2511E-08	-1.9647E-08	3.9889E-07	2.8435E-06
-3.4864E-08	-5.0921E-08	6.7302E-07	2.3763E-06
-9.1551E-08	-1.6499E-09	-1.9364E-06	2.3192E-06
-6.7418E-08	-1.9462E-08	1.4474E-06	3.3750E-07
-8.8808E-08	-2.7581E-08	-7.8793E-07	1.1094E-06
-9.6448E-08	-2.2427E-08	-6.4866E-07	1.1946E-06
-7.8981E-08	3.1723E-08	-1.7991E-07	1.6255E-06
-8.6234E-08	1.0788E-08	-2.4423E-06	2.6320E-06
-4.3794E-08	4.0589E-08	-3.5051E-08	2.0849E-06
-7.3094E-08	2.5318E-08	3.3137E-07	2.3136E-06
-3.9922E-08	6.9932E-08	-8.3159E-07	9.8715E-07
-5.7951E-08	-1.7423E-08	-5.3428E-08	1.7264E-06
-4.5016E-08	-3.9691E-09	-8.4979E-07	2.5009E-06
-5.2434E-08	1.6777E-08	-8.1104E-07	1.5349E-06
-5.1342E-08	3.1479E-08	-4.8594E-07	1.3096E-06
