jMRUI Data Textfile

Filename: Export_to_jmrui.txt

PointsInDataset: 2048
DatasetsInFile: 1
SamplingInterval: 0.250000
ZeroOrderPhase: 0E0
BeginTime: 0E0
TransmitterFrequency: 1.2326E8
MagneticField: 2.8936E0
TypeOfNucleus:  
NameOfPatient:  
DateOfExperiment:  
Spectrometer:  
AdditionalInfo: 
SignalNames:  


Signal and FFT
sig(real)	sig(imag)	fft(real)	fft(imag)
Signal 1 out of 1 in file
3.4477E-06	7.8384E-07	-2.4815E-06	3.0315E-07
5.4597E-06	-3.8043E-07	-2.5523E-06	1.1640E-06
3.6856E-06	-2.0970E-06	-1.3751E-06	1.6734E-06
2.2119E-06	-2.8992E-06	-1.0039E-06	1.2029E-06
-1.1746E-07	-2.9443E-06	-5.7287E-07	5.0608E-07
-1.5224E-06	-2.0099E-06	-2.7584E-06	-4.2332E-07
-2.3080E-06	-6.4723E-07	-2.6785E-06	1.7390E-06
-1.6560E-06	5.6777E-07	-2.5583E-06	3.4389E-07
-7.2801E-07	1.1573E-06	-1.1262E-06	1.8667E-06
4.7486E-07	1.1159E-06	-1.5922E-06	9.1892E-08
1.1400E-06	5.2006E-07	-1.7148E-06	2.1344E-06
1.4092E-06	-1.4731E-07	-1.4935E-06	8.3247E-07
9.6485E-07	-7.4011E-07	-1.3572E-06	2.4674E-06
4.9616E-07	-1.0257E-06	1.4052E-06	8.8792E-07
-1.1993E-07	-9.3354E-07	-6.2829E-07	7.0264E-07
-3.9509E-07	-6.9074E-07	-1.5445E-06	1.2939E-06
-5.3861E-07	-4.1156E-07	-4.9517E-07	3.1607E-06
-4.1881E-07	-2.7754E-07	-2.0845E-06	2.4753E-06
-4.2606E-07	-2.1317E-07	-3.0439E-07	2.3043E-06
-4.7113E-07	-1.4090E-07	-2.3940E-06	2.7035E-06
-6.3074E-07	-9.6046E-08	6.1468E-08	2.2114E-06
-6.7032E-07	2.3582E-08	1.1172E-06	3.8369E-07
-7.3278E-07	3.1190E-07	-5.1144E-07	2.3382E-06
-4.2557E-07	4.9568E-07	-8.8191E-08	1.8109E-06
-1.3453E-07	4.9560E-07	5.0599E-07	-1.5774E-07
1.6329E-07	3.2965E-07	-1.1189E-06	-1.2385E-06
2.5327E-07	1.0248E-07	-7.6857E-07	1.8093E-06
2.7417E-07	-2.0705E-07	-5.4994E-07	9.3613E-07
-1.9120E-10	-3.4397E-07	-5.1078E-07	1.8997E-06
-2.1578E-07	-2.7183E-07	-1.0042E-06	3.6505E-06
-5.1279E-07	-8.4926E-08	-6.6266E-07	1.2865E-06
-5.3823E-07	1.4624E-07	-5.6683E-07	1.2566E-06
-4.5978E-07	3.9930E-07	3.9574E-07	2.8087E-07
-1.9884E-07	4.8781E-07	-5.0187E-07	1.5148E-06
7.8690E-09	4.2443E-07	-5.3840E-07	8.8729E-07
1.7113E-07	3.6873E-07	-1.4075E-06	1.0639E-06
2.0530E-07	2.4691E-07	8.1380E-07	1.7368E-06
2.5347E-07	1.0600E-07	-8.2535E-07	8.9150E-07
1.9942E-07	5.7715E-08	-7.6312E-07	1.4623E-06
2.1526E-07	1.8891E-08	-1.4530E-06	-3.9756E-07
2.1441E-07	-7.3204E-08	-1.1682E-06	1.0919E-06
2.8062E-07	-1.4033E-07	-7.6974E-07	3.3232E-07
1.8524E-07	-2.6826E-07	-1.7710E-06	9.9283E-07
2.1265E-07	-4.0701E-07	-1.6201E-06	1.8475E-07
1.8067E-09	-4.5983E-07	4.9867E-07	1.7255E-06
-9.5509E-08	-4.2871E-07	-3.6038E-07	2.4142E-06
-3.4979E-07	-4.0310E-07	-1.7597E-06	-1.3750E-07
-3.7871E-07	-1.7182E-07	9.7880E-07	1.3025E-06
-3.1463E-07	-3.3257E-08	6.0262E-08	1.4231E-06
-1.2989E-07	5.5899E-08	-2.2202E-06	2.2218E-06
-2.1775E-08	5.8115E-08	-7.2647E-07	1.0539E-06
1.0937E-07	-5.9387E-08	-1.4746E-06	1.1545E-06
3.1423E-08	-2.0566E-07	-1.9328E-06	1.2105E-06
-8.7957E-08	-3.2181E-07	-7.8448E-07	1.3455E-06
-3.0620E-07	-2.9487E-07	-4.9250E-07	6.0636E-07
-4.5280E-07	-2.9253E-07	-5.8854E-07	1.7481E-06
-5.2581E-07	-1.3626E-07	-1.1941E-07	1.1083E-06
-4.4076E-07	5.1578E-08	-6.7885E-07	1.5448E-06
-2.7955E-07	1.1361E-07	-6.5994E-07	1.5423E-06
-1.5436E-07	1.7692E-07	4.1625E-07	5.6463E-07
-5.7434E-09	7.7036E-08	-9.7263E-07	5.0170E-07
1.7949E-09	-4.2655E-08	5.3204E-08	6.1780E-07
-1.0533E-07	-1.7000E-07	1.7498E-07	3.6793E-07
-2.2616E-07	-1.2968E-07	-3.5337E-07	1.0532E-06
-3.6200E-07	-1.2680E-07	5.9484E-07	2.2608E-06
-3.9839E-07	-9.5914E-09	-1.7502E-06	2.5279E-06
-3.5732E-07	1.1060E-07	2.5603E-07	7.9343E-07
-2.7874E-07	1.7964E-07	9.9729E-07	2.6308E-06
-2.0645E-07	2.0191E-07	-1.0667E-06	2.0051E-06
-1.0196E-07	1.0781E-07	-6.6163E-07	2.0162E-06
-1.3774E-07	3.0085E-08	1.4438E-06	4.3414E-08
-1.9931E-07	-2.6206E-08	-2.5448E-07	2.5873E-06
-2.7297E-07	-4.3423E-08	9.0143E-07	2.4276E-06
-2.1554E-07	2.0720E-08	1.0517E-06	1.7503E-07
-2.6423E-07	1.3356E-07	-1.9228E-06	7.5905E-07
-1.9181E-07	1.9523E-07	-1.7213E-06	2.1735E-06
-1.0522E-07	2.0824E-07	1.1788E-06	2.6380E-06
-8.9537E-08	1.8919E-07	4.5032E-07	1.4594E-06
-5.9782E-09	9.2204E-08	-1.0847E-06	-3.5676E-08
-5.4006E-08	2.2797E-08	-7.2788E-07	2.0061E-06
-1.5596E-07	3.3605E-08	-7.4575E-07	3.0419E-06
-1.7340E-07	1.4648E-08	-1.0457E-06	6.3270E-07
-2.3198E-07	1.2304E-07	-2.2730E-06	2.2101E-06
-1.6538E-07	2.2723E-07	-1.4011E-06	2.2579E-06
-9.0241E-08	2.3436E-07	2.3051E-07	5.8598E-07
5.1556E-08	2.1964E-07	7.8551E-07	1.0361E-06
1.4035E-07	1.0697E-07	3.0934E-07	1.8645E-06
1.2809E-07	-3.8684E-08	-1.1451E-06	2.5755E-06
8.0512E-08	-1.4836E-07	-7.3193E-07	1.5427E-06
-3.1110E-08	-2.0816E-07	2.7967E-07	1.9149E-06
-1.6999E-07	-1.3364E-07	-1.3489E-06	1.8677E-06
-2.3670E-07	-1.1670E-08	1.2496E-07	2.0277E-06
-2.2922E-07	1.4201E-07	-5.2909E-07	1.0064E-06
-1.5963E-07	2.1352E-07	-8.7184E-07	2.1302E-06
-3.9405E-08	2.5094E-07	6.0279E-07	1.8901E-06
9.2006E-08	1.6756E-07	-1.9190E-06	1.7306E-06
1.2497E-07	8.2848E-08	-9.8915E-07	8.7678E-07
1.3482E-07	-8.9252E-08	1.5461E-08	1.1304E-06
5.4184E-08	-1.9091E-07	5.8928E-08	1.7895E-06
-9.6745E-08	-1.9573E-07	-1.9563E-07	1.9379E-07
-1.7614E-07	-1.4964E-07	-1.3280E-06	1.4400E-06
-1.6148E-07	-1.2966E-07	-8.3922E-07	8.6654E-07
-1.9916E-07	-7.7922E-08	8.2064E-07	9.6995E-07
-2.0672E-07	-2.1913E-08	1.6555E-06	1.8418E-06
-1.8446E-07	-1.2439E-08	-3.6467E-07	2.1567E-06
-1.9588E-07	2.0934E-08	5.8090E-07	1.9932E-06
-2.2449E-07	3.9627E-08	6.0310E-08	3.2928E-06
-2.3336E-07	7.2941E-08	3.4627E-07	1.2620E-06
-1.6160E-07	1.2782E-07	-1.1696E-06	1.2131E-06
-1.0627E-07	1.5100E-07	-3.9507E-07	9.1461E-07
-2.2344E-08	1.5553E-07	-1.7814E-06	3.1406E-06
8.2207E-08	9.0394E-08	1.7009E-06	2.7649E-06
8.8909E-08	4.7801E-08	3.5983E-07	1.3505E-06
-1.2704E-08	-6.9599E-08	-2.2151E-07	9.5072E-07
-7.0545E-08	-1.0113E-07	2.2005E-07	1.4543E-06
-1.9115E-07	-1.1578E-07	-2.2591E-07	1.6138E-06
-2.5221E-07	-2.7062E-08	1.2913E-06	1.2533E-06
-2.5480E-07	7.6382E-08	9.5823E-07	1.7690E-06
-2.2846E-07	1.5979E-07	-4.3876E-07	4.0862E-06
-8.9865E-08	1.6740E-07	4.4483E-07	2.8343E-06
8.2045E-09	1.3699E-07	3.3252E-07	1.4636E-06
4.0895E-08	6.0737E-08	5.5279E-07	1.3397E-06
4.7140E-08	-1.7523E-08	-8.0870E-07	2.0671E-06
-2.7227E-08	-7.5277E-08	-4.1857E-07	2.8230E-06
-1.0703E-07	-2.5299E-08	-2.1382E-07	1.1525E-06
-1.2395E-07	-4.6277E-08	-1.2368E-06	1.0524E-06
-1.5325E-07	5.7007E-08	-5.3785E-07	8.2414E-07
-1.2252E-07	1.0053E-07	-1.5034E-06	1.3379E-06
-6.8289E-08	1.2511E-07	4.1511E-07	3.6086E-06
-5.2701E-08	1.0322E-07	1.3847E-06	2.3914E-06
-6.3120E-08	9.5677E-08	-1.4711E-06	1.6701E-06
4.4589E-09	2.7962E-08	1.3410E-06	1.2427E-06
-4.8400E-08	4.4184E-09	3.6086E-07	1.4565E-06
-4.7882E-08	3.5434E-08	8.6008E-08	1.2542E-06
-4.7093E-08	4.6281E-08	-2.0998E-07	1.2940E-06
-2.2823E-08	6.9000E-08	-5.8357E-07	2.0101E-06
1.4952E-08	4.9012E-08	8.9795E-07	7.0634E-07
2.4436E-08	2.1167E-08	-9.4874E-07	2.7209E-07
6.9210E-08	1.3376E-08	3.6426E-07	4.8590E-07
3.5752E-08	-6.3538E-08	-2.4307E-07	1.5779E-06
-3.3416E-08	-5.9560E-08	-1.5096E-06	2.0339E-07
-6.6877E-08	-1.1342E-07	-6.4682E-07	1.1834E-06
-1.0736E-07	-7.8763E-08	3.6823E-07	1.7456E-06
-1.8636E-07	-3.9032E-08	-2.1413E-06	2.4949E-06
-1.9312E-07	1.6400E-08	6.5643E-07	1.7476E-06
-1.1216E-07	3.3935E-08	1.0172E-07	3.5112E-06
-7.6792E-08	3.6197E-08	-9.3302E-07	2.2609E-06
-5.6980E-08	3.6725E-08	8.2107E-07	1.3271E-06
-3.5218E-08	2.7122E-08	6.6369E-07	2.9260E-06
-2.1699E-08	-6.7996E-09	-3.2307E-07	2.2827E-06
-6.8786E-08	-4.5549E-08	-5.2163E-07	1.8359E-06
-6.9052E-08	-4.0296E-08	-6.7083E-07	2.3999E-06
-9.2581E-08	-4.6128E-08	-1.0174E-06	3.0864E-06
-1.3982E-07	-1.7184E-08	-9.3266E-07	1.4288E-06
-1.1917E-07	4.0361E-08	9.9504E-07	3.3249E-06
-1.1598E-07	4.3981E-08	7.7127E-07	1.9272E-06
-8.7249E-08	2.9198E-08	1.7689E-07	1.6977E-06
-6.5453E-08	9.6484E-08	-5.5035E-08	2.1848E-06
-1.0056E-07	7.8215E-08	6.0685E-07	3.3225E-06
-5.5730E-08	7.4245E-09	-1.1332E-06	2.2527E-06
-6.7393E-08	-4.1089E-08	-4.8120E-07	2.9913E-06
-3.1645E-08	1.7101E-08	1.1129E-06	2.6765E-06
-5.4854E-08	-7.6723E-09	1.3159E-06	2.1061E-06
-6.1914E-08	9.2240E-09	5.3759E-07	5.8218E-07
-7.2525E-08	1.3689E-09	6.9124E-07	3.0001E-06
-7.8170E-08	1.7122E-08	-7.3689E-07	1.5895E-06
-6.0394E-08	-6.5844E-10	2.8571E-07	2.0331E-06
-1.0353E-07	5.4276E-08	-5.3282E-07	6.8627E-07
-9.5295E-08	4.9914E-08	-1.5769E-07	1.4545E-06
-1.0331E-07	4.8483E-08	2.5612E-07	2.6600E-06
-6.0970E-08	6.7194E-08	-2.9424E-07	1.8465E-06
-3.6090E-08	7.0933E-08	9.7426E-07	1.1606E-06
-1.0607E-08	8.9250E-08	-1.6261E-07	2.1895E-06
3.4033E-08	5.7263E-08	-4.1753E-07	2.6853E-06
4.5865E-08	-1.6243E-08	-8.9859E-08	3.3737E-06
-2.4637E-08	-3.2697E-08	-1.3577E-06	2.4676E-06
-1.0739E-08	2.1219E-08	-1.4075E-06	1.1516E-06
-2.1523E-08	-9.5391E-09	2.7285E-08	2.5390E-06
-1.3262E-08	-1.3188E-08	-1.2540E-06	2.3036E-06
-3.0220E-08	3.5544E-09	-2.8646E-08	2.0836E-06
6.2383E-10	1.9815E-08	-4.6702E-07	2.1837E-06
-1.1076E-08	3.0887E-08	-9.0217E-07	1.8717E-06
7.5410E-09	2.1314E-08	-7.7774E-07	7.3308E-07
1.7582E-09	-4.7883E-09	-8.2361E-07	2.8989E-06
-6.8423E-09	-2.1070E-08	5.9552E-07	3.3168E-07
-1.9391E-09	-2.3060E-08	6.6986E-07	1.6311E-06
-3.1660E-08	-1.9734E-08	7.5477E-07	3.4121E-06
-3.0162E-09	-5.0918E-08	1.0747E-06	1.3332E-06
-1.8253E-08	-2.1331E-08	-5.6407E-07	1.5279E-06
-5.4584E-08	-2.5485E-08	-2.9454E-06	1.3092E-06
-5.9504E-08	-1.5010E-08	-2.8117E-07	1.8006E-06
-5.5557E-08	-1.7094E-08	-7.4800E-07	1.5809E-06
-1.0972E-07	-6.0329E-10	-1.0938E-07	2.0557E-06
-6.2459E-08	-3.6827E-09	-7.6319E-07	2.9777E-06
-6.5371E-08	3.6563E-08	-1.7961E-07	1.4185E-06
-5.4641E-09	2.8982E-08	-1.0017E-06	2.0245E-06
-4.7088E-08	4.7663E-08	6.3665E-07	1.1472E-06
-3.5685E-08	2.6810E-08	-5.2116E-07	6.9380E-07
-1.8524E-08	4.2046E-08	-1.2650E-06	1.0388E-06
-4.0425E-08	-2.6510E-08	6.8097E-08	2.6448E-06
-3.5925E-08	4.6026E-09	-5.2758E-07	2.6140E-06
-4.0540E-08	-1.8614E-08	-9.6145E-07	1.8714E-06
-3.9933E-08	3.3206E-08	7.3356E-07	2.0726E-06
-5.1983E-08	4.2218E-08	-5.4024E-07	3.0397E-06
