jMRUI Data Textfile

Filename: Export_to_jmrui.txt

PointsInDataset: 2048
DatasetsInFile: 1
SamplingInterval: 0.250000
ZeroOrderPhase: 0E0
BeginTime: 0E0
TransmitterFrequency: 1.2326E8
MagneticField: 2.8936E0
TypeOfNucleus:  
NameOfPatient:  
DateOfExperiment:  
Spectrometer:  
AdditionalInfo: 
SignalNames:  


Signal and FFT
sig(real)	sig(imag)	fft(real)	fft(imag)
Signal 1 out of 1 in file
2.4465E-06	4.9315E-07	-1.0956E-06	6.6103E-07
2.9737E-06	-1.1804E-07	1.3816E-06	2.4462E-06
1.9862E-06	-1.0732E-06	-1.3182E-06	-2.2449E-07
1.2457E-06	-1.5456E-06	-4.3837E-07	6.3855E-07
-1.0633E-08	-1.5927E-06	-7.2388E-07	-1.8779E-07
-7.0536E-07	-1.1494E-06	-4.0991E-07	-6.9763E-07
-1.1298E-06	-4.6282E-07	2.8121E-06	-2.9615E-07
-7.8418E-07	1.8197E-07	-6.8079E-07	4.4560E-07
-3.1347E-07	4.9162E-07	-2.6775E-06	2.3843E-07
3.0721E-07	4.2232E-07	-1.9220E-07	1.3295E-06
6.1483E-07	1.1241E-07	5.3912E-07	6.2651E-07
7.2795E-07	-3.5898E-07	5.0680E-07	1.2546E-06
3.5776E-07	-5.2440E-07	1.0790E-06	1.0745E-06
9.5454E-08	-5.9771E-07	-9.3528E-07	-1.1069E-07
-2.3737E-07	-4.8619E-07	-1.6179E-06	4.3508E-07
-3.1269E-07	-2.7235E-07	-3.1408E-07	6.8438E-07
-2.6674E-07	-1.2388E-07	6.3863E-07	7.3610E-07
-1.2130E-07	-5.0882E-08	-1.5870E-06	1.9009E-06
-8.9933E-08	-1.2039E-07	-7.5395E-07	5.5284E-07
-1.2745E-07	-2.3138E-07	8.3202E-07	-1.1249E-07
-3.0518E-07	-2.5113E-07	2.4610E-07	3.6645E-07
-4.1448E-07	-1.2064E-07	-3.7126E-07	-6.0775E-07
-4.9954E-07	5.4404E-08	-1.0148E-06	-5.7958E-07
-3.6932E-07	2.5475E-07	-2.8898E-07	-1.6288E-07
-2.2287E-07	2.9966E-07	1.2000E-07	2.1298E-06
-2.4145E-08	2.6311E-07	1.1444E-06	8.8190E-07
1.2223E-07	1.1704E-07	1.4773E-06	3.7254E-07
1.7533E-07	-9.1345E-08	-6.1849E-07	-7.6764E-07
4.6205E-08	-1.6569E-07	3.8835E-07	7.5080E-07
-1.2634E-07	-1.2519E-07	5.7362E-07	1.1323E-06
-2.8104E-07	-1.5422E-08	-2.2915E-07	-9.8874E-07
-3.2295E-07	1.1599E-07	-4.3655E-07	1.6156E-06
-2.7951E-07	2.2171E-07	1.6312E-06	2.3556E-06
-1.4779E-07	2.8932E-07	-1.4491E-06	8.5883E-07
1.9621E-08	2.7199E-07	-9.1352E-07	1.3309E-06
1.1951E-07	2.0419E-07	8.7871E-07	3.1308E-07
1.5316E-07	1.6334E-07	6.9006E-07	7.1596E-07
1.4370E-07	1.0688E-07	-4.9876E-07	1.4203E-06
1.2153E-07	5.1614E-08	-6.2372E-07	-2.1616E-07
6.0153E-08	5.0638E-08	-5.7118E-09	-2.2790E-07
1.5511E-07	2.5015E-08	3.8961E-07	1.0451E-06
1.3093E-07	1.8810E-08	8.8207E-07	-6.1417E-07
1.3119E-07	-6.2168E-08	3.6989E-07	-2.0588E-07
1.6155E-07	-1.6015E-07	-5.2581E-07	6.3514E-07
6.4439E-08	-1.6089E-07	9.0646E-07	3.3634E-06
6.8782E-08	-2.2362E-07	7.6097E-07	1.4519E-06
-7.3493E-08	-1.8081E-07	1.1227E-06	1.3419E-06
-1.2888E-07	-1.3887E-07	2.3399E-07	9.6535E-07
-1.6948E-07	-3.7443E-08	1.5875E-06	1.7793E-06
-9.4549E-08	-4.2394E-08	7.0208E-07	5.1723E-07
-8.6492E-08	-4.9523E-08	9.2429E-08	1.4453E-06
1.7071E-08	-5.9439E-08	-1.4072E-06	1.8379E-06
-4.8932E-08	-1.2694E-07	5.1602E-08	1.4885E-06
-7.7383E-08	-1.0501E-07	1.1457E-06	1.1070E-06
-1.4150E-07	-9.1024E-08	1.0837E-06	4.0834E-07
-2.4227E-07	-9.4068E-08	9.8170E-07	1.2816E-06
-2.1995E-07	-1.6273E-08	-7.0464E-07	1.7214E-06
-1.9715E-07	3.7438E-08	-7.3952E-07	-1.0525E-06
-1.3195E-07	4.2548E-08	8.5746E-07	-1.6991E-07
-6.6835E-08	2.2354E-08	2.6200E-06	1.2258E-06
1.0895E-08	7.8450E-09	9.1920E-07	3.5261E-07
6.1605E-09	-6.1048E-08	-5.4032E-07	3.3605E-07
-2.8284E-08	-1.4220E-07	6.1895E-07	5.5273E-07
-1.3518E-07	-1.2598E-07	2.4089E-07	1.2696E-06
-2.5957E-07	-4.2138E-08	1.2049E-06	-5.3528E-07
-3.1314E-07	2.4987E-08	6.9887E-07	1.3825E-06
-3.1561E-07	1.0046E-07	4.6319E-07	8.6923E-07
-2.0242E-07	1.5404E-07	1.1635E-07	9.2773E-07
-1.6314E-07	1.8281E-07	1.0602E-06	4.5929E-07
-7.0370E-08	1.2025E-07	1.1700E-06	-2.3667E-07
-5.6291E-08	5.6711E-08	4.2642E-08	7.0465E-07
-9.7231E-08	8.3888E-08	1.0999E-06	9.0161E-07
-1.4818E-07	1.6471E-08	-1.9343E-07	7.7347E-07
-1.2647E-07	4.4916E-08	2.5801E-06	-8.5003E-07
-1.5151E-07	1.0357E-07	-7.9308E-08	3.4625E-07
-1.1825E-07	1.2120E-07	4.8125E-07	-2.2189E-07
-4.6400E-08	1.4394E-07	1.4808E-06	8.2800E-07
-5.3921E-08	1.1368E-07	8.6423E-07	1.7959E-06
3.9346E-11	1.2061E-07	-1.1054E-07	1.5929E-06
-7.1677E-08	3.2704E-08	-2.6614E-07	8.3077E-07
-1.2517E-07	6.6370E-08	-3.7328E-07	1.7417E-06
-1.1591E-07	5.1638E-08	5.0330E-07	-9.1674E-07
-1.5007E-07	1.5526E-07	2.7151E-07	-2.0259E-07
-1.2322E-07	2.0280E-07	1.2936E-06	6.2737E-07
-2.9208E-08	2.1264E-07	9.8696E-08	4.5996E-07
4.3879E-08	2.2925E-07	1.2441E-06	-3.2894E-07
1.6045E-07	8.0130E-08	1.9766E-07	6.1499E-07
1.3576E-07	-1.6976E-08	-2.0716E-07	4.9560E-07
8.2832E-08	-1.0683E-07	-1.7660E-06	1.4931E-06
-3.1095E-08	-1.3233E-07	1.9675E-08	1.6220E-06
-1.4340E-07	-9.5536E-08	7.8706E-07	2.0104E-07
-1.5247E-07	1.1827E-08	-8.7691E-07	1.7512E-06
-1.6006E-07	1.5304E-07	4.6235E-07	1.8062E-06
-5.6145E-08	1.2809E-07	1.0810E-06	5.8273E-07
4.2689E-08	1.5620E-07	6.2239E-07	1.5329E-06
1.0188E-07	1.3676E-07	1.3243E-07	1.3684E-06
1.0279E-07	3.1278E-08	-1.1191E-07	3.0967E-07
5.2455E-08	-3.9662E-08	6.1772E-07	7.1732E-07
-1.8549E-08	-1.2629E-07	1.2419E-07	7.1385E-08
-6.4104E-08	-7.4599E-08	1.5569E-06	-1.5526E-08
-1.4075E-07	-7.8987E-08	9.2498E-07	-1.5155E-07
-1.2732E-07	-3.3539E-08	6.7813E-07	1.2413E-06
-1.0065E-07	2.0199E-08	-1.5983E-07	1.0979E-06
-9.3820E-08	-4.6262E-08	1.8466E-06	1.5810E-06
-1.2618E-07	-2.2334E-08	1.9875E-06	1.3542E-06
-7.7110E-08	-1.1016E-08	5.0389E-07	1.0692E-06
-8.0234E-08	-1.5310E-08	1.1693E-06	-1.2364E-07
-1.5770E-07	-1.0092E-09	5.0038E-07	6.6464E-07
-1.1183E-07	7.6490E-08	7.8888E-07	3.2286E-07
-1.0563E-07	1.0378E-07	1.4659E-06	1.3846E-06
-8.9192E-08	8.2652E-08	1.8079E-06	9.9395E-07
-7.8085E-09	8.6124E-08	6.0359E-07	7.7624E-07
8.2277E-09	2.7998E-08	1.4849E-06	1.1070E-07
-1.1724E-10	-9.4041E-09	-4.2986E-08	1.8570E-06
-3.8338E-08	-3.9421E-08	9.2991E-07	-2.6041E-07
-9.5249E-08	-5.5000E-08	-4.4957E-07	3.1314E-07
-1.3095E-07	1.5678E-08	2.0690E-06	-1.0587E-06
-1.6283E-07	2.0375E-08	9.1812E-08	5.4063E-08
-1.3455E-07	6.8532E-08	8.3995E-07	3.5736E-07
-4.7808E-08	7.0780E-08	-5.1245E-07	3.1536E-07
-1.9841E-08	6.9877E-08	-3.3077E-07	-3.7674E-07
1.1887E-08	2.5009E-08	4.3323E-08	1.5697E-06
-1.4921E-08	1.4710E-08	-1.5195E-06	2.1142E-06
-2.6085E-09	2.0089E-08	4.0816E-07	1.3264E-06
-2.4160E-08	-5.4073E-08	-6.1309E-07	1.3956E-06
-5.3249E-08	-3.6224E-08	-5.4239E-07	8.3547E-07
-4.5749E-08	4.2599E-08	2.2889E-06	1.5208E-06
-5.1125E-08	3.0102E-08	4.1486E-07	1.7553E-07
-4.9709E-08	4.4353E-08	-1.1016E-06	7.7969E-07
-5.4637E-08	7.4586E-08	-4.9500E-07	1.4647E-06
2.6106E-08	4.9187E-08	8.0597E-07	-3.7341E-07
-1.2746E-08	-3.8276E-09	-1.7842E-07	1.1997E-06
-6.9051E-08	3.0675E-08	-2.7796E-07	1.0774E-06
5.0567E-09	3.4921E-08	1.4288E-08	4.0246E-07
-3.9090E-08	5.5931E-08	5.1154E-07	2.5632E-06
-6.2235E-09	1.6276E-08	2.2928E-07	2.2866E-06
2.2975E-08	1.7253E-08	8.1446E-07	1.6884E-06
7.0901E-08	-1.5017E-10	8.4564E-07	2.5049E-06
4.3704E-08	-2.1644E-09	-7.3930E-07	2.4969E-06
4.5864E-08	-5.9847E-08	-5.3401E-07	-3.5355E-07
-9.4250E-09	-8.3797E-08	1.3087E-06	5.5956E-07
-4.1589E-08	-1.9268E-08	1.8375E-07	1.6601E-06
-6.5374E-08	-6.3238E-09	1.4478E-06	1.1529E-07
-9.4033E-08	-2.3620E-08	1.3761E-06	-4.4696E-07
-6.9323E-08	-1.0938E-08	-2.2008E-07	-7.1465E-07
-6.3156E-08	1.4860E-08	5.1492E-07	-2.8669E-09
-1.5204E-09	-7.0076E-09	6.0440E-07	2.4729E-06
-2.4304E-08	2.4730E-08	1.2439E-07	-8.8456E-07
-3.5219E-08	-2.8207E-09	1.5508E-07	1.6891E-06
-2.6928E-08	-1.5216E-08	8.5758E-07	1.8567E-06
-7.0937E-08	-1.4564E-08	-5.5461E-07	8.6274E-07
-7.5837E-08	-3.7017E-08	-6.3526E-07	4.9387E-07
-8.1133E-08	-7.7545E-09	1.6444E-06	1.4356E-06
-4.4158E-08	-8.9859E-09	2.7175E-07	5.9764E-07
-7.1921E-08	4.9422E-08	7.1509E-08	1.7957E-06
-3.0191E-08	2.9126E-08	-1.2892E-06	2.2255E-06
-5.4121E-08	2.8662E-08	1.3669E-07	6.6706E-07
-3.8858E-08	4.8552E-08	2.6630E-07	1.6332E-06
-4.8626E-08	1.7316E-08	1.7454E-06	4.1746E-07
-1.2310E-08	-3.5120E-09	1.0988E-07	3.1215E-07
3.6496E-09	1.8849E-08	-5.0795E-07	1.7089E-06
-1.4823E-08	-1.7291E-08	2.0223E-06	1.8621E-06
-3.7434E-08	1.3699E-08	1.2756E-06	-1.0416E-07
-3.2062E-08	-3.3190E-08	1.1491E-06	1.1268E-06
-3.0950E-08	-1.8270E-09	-3.0057E-07	2.5826E-07
-4.8800E-08	1.3987E-08	8.0698E-07	3.6783E-07
-4.2051E-08	1.8223E-08	-1.1265E-07	-3.3823E-07
-4.6243E-08	-8.6079E-09	3.8058E-07	1.3169E-07
-4.7645E-08	3.4552E-08	-7.7593E-07	2.4890E-06
-2.2543E-08	5.3447E-08	2.0820E-07	4.3299E-07
2.6837E-09	6.5151E-08	-1.0846E-06	-2.3247E-08
7.9491E-09	1.0267E-07	-2.6498E-07	-2.0012E-07
5.2033E-08	6.1825E-08	3.0993E-07	1.4620E-06
2.9658E-08	1.7132E-08	-1.5971E-06	1.1631E-07
5.6406E-08	8.7492E-09	5.2131E-07	6.0191E-07
5.1837E-08	5.0349E-08	-6.7722E-07	9.3811E-07
5.2075E-08	5.1589E-08	5.1696E-07	1.2279E-06
8.8245E-09	2.7028E-09	6.1881E-07	1.2987E-06
2.4323E-08	2.1266E-08	-3.7303E-07	1.3358E-06
5.8781E-08	7.3693E-09	7.6242E-08	8.5379E-08
1.7296E-08	1.6566E-08	4.9301E-07	-3.9457E-08
3.8137E-08	-4.0131E-08	-6.1154E-08	2.1090E-06
7.5499E-09	2.2491E-08	1.3415E-06	1.5007E-06
2.0709E-08	-3.7266E-08	1.9874E-06	-4.8599E-08
-8.6691E-09	-4.8994E-08	4.9920E-07	1.6955E-06
1.2745E-08	-6.4476E-08	7.1523E-08	-1.5323E-07
-1.6948E-08	-4.8107E-09	4.3379E-07	2.4176E-06
2.8779E-08	3.0333E-09	1.1460E-07	1.5345E-06
-1.6716E-08	-1.5686E-08	1.8013E-06	1.7720E-06
-6.6732E-09	-3.6458E-09	5.5060E-07	5.1927E-07
-3.9042E-09	2.9541E-09	1.1077E-06	-3.1780E-08
-4.9053E-08	-6.1466E-09	7.9252E-07	4.7451E-07
-3.7554E-08	2.7860E-09	7.3018E-07	3.9655E-07
-2.9025E-08	1.8495E-08	2.3758E-06	2.3732E-06
-1.9754E-08	4.5380E-08	-1.5671E-07	4.4512E-07
-2.5967E-09	1.2475E-08	3.1221E-07	5.7902E-07
-2.6927E-08	2.8011E-08	1.0967E-06	2.9795E-07
-5.2639E-09	2.4028E-08	6.8578E-08	1.0457E-06
2.0555E-08	2.6149E-08	7.3832E-07	2.7126E-07
-9.1097E-09	3.4357E-08	4.5873E-07	7.7917E-07
-1.2324E-08	3.7205E-08	2.0497E-07	1.8315E-06
1.2608E-08	1.5590E-08	-6.3153E-07	1.9033E-06
-4.9129E-09	3.6135E-08	1.9441E-07	-3.4034E-07
1.4647E-08	2.2180E-08	1.7514E-06	5.7726E-07
4.3245E-09	4.3336E-08	2.0374E-06	2.2491E-06
