jMRUI Data Textfile

Filename: Export_to_jmrui.txt

PointsInDataset: 2048
DatasetsInFile: 1
SamplingInterval: 0.250000
ZeroOrderPhase: 0E0
BeginTime: 0E0
TransmitterFrequency: 1.2326E8
MagneticField: 2.8936E0
TypeOfNucleus:  
NameOfPatient:  
DateOfExperiment:  
Spectrometer:  
AdditionalInfo: 
SignalNames:  


Signal and FFT
sig(real)	sig(imag)	fft(real)	fft(imag)
Signal 1 out of 1 in file
2.8365E-06	6.3861E-07	-1.9238E-07	3.6085E-07
4.3704E-06	-2.0548E-07	-1.6052E-06	1.7067E-06
3.1535E-06	-1.4970E-06	-8.8266E-07	-4.2539E-07
2.1008E-06	-2.2152E-06	-1.3539E-06	1.6606E-06
2.7389E-07	-2.3750E-06	-1.1978E-06	2.3923E-06
-7.0947E-07	-1.7164E-06	-6.3139E-08	5.5585E-07
-1.3692E-06	-7.7849E-07	-2.2440E-06	-6.6658E-07
-9.6383E-07	1.3082E-07	-6.1797E-07	1.5801E-07
-3.1363E-07	5.8685E-07	-3.1162E-06	5.1769E-07
5.2987E-07	5.8394E-07	-1.8136E-06	1.9049E-06
1.0047E-06	1.8787E-07	-5.3859E-07	1.4679E-06
1.2017E-06	-3.2243E-07	-6.3178E-07	1.1965E-06
9.0546E-07	-7.2735E-07	1.2065E-06	1.2954E-06
4.9635E-07	-9.2788E-07	-8.5123E-07	1.5649E-06
3.6629E-08	-8.2849E-07	-1.5576E-06	1.7430E-06
-1.1960E-07	-6.6836E-07	-7.2196E-08	-3.5896E-07
-2.2176E-07	-4.2904E-07	-1.1207E-06	2.8354E-06
-6.7433E-08	-3.5604E-07	-6.9984E-07	2.0595E-07
-5.7606E-08	-3.5579E-07	6.5780E-08	2.4706E-06
-8.9559E-08	-3.7987E-07	-8.8107E-07	2.3624E-07
-3.1052E-07	-3.7804E-07	-9.4405E-07	7.4380E-07
-3.3895E-07	-1.8222E-07	-2.1743E-07	8.2242E-07
-4.3742E-07	-8.3535E-08	1.0767E-07	2.3069E-06
-2.6544E-07	1.2989E-07	1.0564E-06	1.4433E-06
-1.0785E-07	1.9307E-07	2.7634E-07	2.9424E-06
1.5308E-07	8.1294E-08	2.0075E-06	-1.1377E-07
2.7322E-07	-6.0529E-08	8.3633E-07	4.1586E-07
2.9697E-07	-2.9025E-07	-1.3249E-07	-1.4944E-07
1.0201E-07	-4.4482E-07	-1.0384E-06	2.0614E-06
-9.6863E-08	-3.9816E-07	8.9642E-07	1.4185E-06
-3.5353E-07	-2.3582E-07	1.4670E-06	1.0279E-06
-3.6588E-07	-2.0947E-08	-8.4913E-07	2.7971E-07
-3.5346E-07	1.9908E-07	7.6403E-07	3.1298E-06
-1.6411E-07	2.6300E-07	1.8276E-06	1.4783E-06
1.4550E-08	2.2939E-07	-6.4246E-07	2.9435E-06
1.7737E-07	1.3299E-07	4.9697E-08	5.1658E-07
2.2940E-07	7.9113E-08	7.7221E-08	9.5161E-07
2.1852E-07	-6.1841E-08	5.7742E-09	2.1252E-06
1.8053E-07	-1.5010E-07	-2.0729E-07	5.1286E-07
1.9047E-07	-1.2304E-07	-2.5728E-07	3.7816E-07
1.3453E-07	-1.6123E-07	-1.2766E-06	7.9162E-07
1.9576E-07	-2.2427E-07	3.0132E-07	-2.6316E-07
1.2328E-07	-2.9196E-07	5.5538E-07	1.9947E-07
1.1477E-07	-3.5805E-07	6.0510E-07	-4.7163E-07
-4.4926E-08	-4.1682E-07	-1.8653E-06	1.1924E-06
-8.7664E-08	-4.3150E-07	1.3951E-06	9.2102E-07
-1.7528E-07	-3.3606E-07	-1.7907E-07	1.2126E-06
-2.6229E-07	-2.3816E-07	9.1756E-08	3.2418E-07
-2.6620E-07	-1.8174E-07	-9.5716E-07	1.1150E-06
-2.0844E-07	-9.7994E-08	-1.2475E-07	3.6472E-06
-1.3875E-07	-7.2521E-08	3.8023E-07	2.1353E-06
-9.3795E-08	-1.1341E-07	4.4882E-07	6.9350E-07
-1.0076E-07	-2.1477E-07	2.5267E-07	2.4612E-06
-1.8726E-07	-2.4127E-07	9.7449E-07	1.3067E-06
-2.9823E-07	-2.7715E-07	6.2520E-07	7.5988E-07
-4.0684E-07	-1.7138E-07	2.8053E-07	7.0435E-07
-4.6076E-07	-8.4364E-08	5.0866E-07	9.9037E-07
-4.2776E-07	-8.3352E-09	5.1669E-07	4.1028E-07
-2.6456E-07	1.0713E-07	-1.0429E-06	1.1505E-06
-1.2669E-07	8.5539E-08	9.1137E-07	1.6552E-06
-5.6709E-08	-1.4887E-08	-3.7429E-07	2.1430E-06
-4.3958E-08	-6.7839E-08	-8.6977E-07	1.0376E-07
-1.3779E-07	-1.3791E-07	8.1894E-07	1.7812E-06
-2.5607E-07	-1.4538E-07	1.0900E-06	1.7121E-06
-3.6537E-07	-1.0903E-07	4.8902E-08	1.5813E-06
-4.2431E-07	2.5487E-08	1.9330E-06	-7.1304E-07
-3.6426E-07	1.4941E-07	7.9456E-07	1.3957E-07
-2.7156E-07	1.9060E-07	1.2744E-06	2.2373E-06
-1.5851E-07	1.6982E-07	7.6969E-07	1.2602E-06
-1.1667E-07	1.2229E-07	-6.3020E-07	1.5167E-06
-1.0711E-07	2.7221E-08	-2.1928E-07	1.6410E-06
-1.8566E-07	2.5871E-09	-9.2971E-07	5.0698E-07
-2.2758E-07	7.2896E-09	-3.9105E-07	1.8623E-06
-2.8000E-07	4.5186E-08	7.1405E-07	2.6486E-06
-2.3694E-07	1.3779E-07	-9.1163E-07	1.8643E-06
-2.0170E-07	1.6103E-07	8.8311E-07	1.9250E-06
-5.7641E-08	2.0209E-07	1.3150E-06	7.9541E-07
-3.7888E-08	1.6330E-07	1.1327E-06	5.3822E-07
-5.8054E-08	9.1189E-08	-9.3933E-07	1.7863E-06
-8.0421E-08	4.3338E-08	1.4956E-06	1.5245E-06
-1.2710E-07	3.7851E-08	-8.1685E-07	2.9294E-07
-1.8881E-07	8.5867E-08	1.7235E-07	-1.1118E-06
-1.7389E-07	1.4144E-07	6.6837E-07	2.3124E-06
-1.3204E-07	2.2609E-07	1.6043E-06	4.4011E-07
-5.4131E-08	1.9930E-07	-9.0348E-07	7.6328E-07
4.6699E-08	1.5182E-07	-9.2138E-07	6.1350E-07
7.1550E-08	5.5002E-08	5.9466E-07	3.0053E-06
4.1729E-08	-8.3792E-08	3.9385E-07	1.4145E-06
-4.4130E-08	-1.1255E-07	7.1852E-07	5.4697E-07
-1.5823E-07	-1.1186E-07	9.2874E-07	5.6202E-07
-2.1212E-07	-8.5576E-08	-5.7636E-07	1.3438E-07
-2.5799E-07	7.2392E-08	-2.4630E-07	5.0803E-07
-2.0027E-07	1.7018E-07	-1.2749E-06	1.8478E-06
-8.2864E-08	1.7377E-07	1.4170E-06	2.1672E-06
-3.7862E-08	1.4450E-07	-2.0047E-06	5.6368E-07
1.0514E-07	1.4003E-07	-7.8582E-07	1.5653E-06
1.2502E-07	-2.6169E-08	1.2203E-06	2.8640E-06
9.6666E-09	-8.8882E-08	1.1471E-07	-9.9590E-08
-7.5305E-08	-1.8612E-07	4.0520E-07	1.3340E-06
-1.6660E-07	-1.3581E-07	-1.1152E-06	1.3991E-06
-2.4700E-07	-1.0158E-07	1.0388E-06	1.2887E-06
-2.4194E-07	-2.3277E-08	6.3200E-07	-3.7293E-07
-2.7115E-07	5.5347E-10	-1.0421E-06	1.3368E-06
-2.2900E-07	4.6679E-08	-7.9381E-07	2.1603E-06
-2.0577E-07	5.4087E-08	5.8404E-07	5.3225E-07
-1.9154E-07	2.6961E-08	9.4552E-07	1.0266E-06
-2.3275E-07	3.7881E-08	3.9132E-07	2.2825E-06
-2.4278E-07	2.5809E-08	-3.2028E-07	1.2031E-06
-2.2535E-07	7.6180E-08	-1.8357E-07	3.7608E-06
-1.4867E-07	7.9843E-08	1.1880E-07	1.2489E-06
-7.7573E-08	1.5584E-07	1.4847E-06	2.3340E-06
-4.7181E-08	9.1458E-08	-8.2321E-07	7.2300E-07
-6.1100E-09	1.9854E-08	7.4435E-07	1.0907E-06
-8.0740E-08	-2.7746E-08	-8.5108E-07	1.5965E-06
-1.4892E-07	-6.7363E-08	1.4960E-06	1.8155E-06
-2.2722E-07	-1.8286E-08	-1.0312E-07	2.1537E-06
-2.8848E-07	2.9706E-08	5.1046E-07	2.4874E-06
-2.1961E-07	8.2257E-08	1.5529E-06	8.5085E-07
-1.8960E-07	1.6923E-07	7.5666E-07	1.9251E-06
-8.8334E-08	1.4445E-07	9.1228E-07	1.6320E-06
-3.6065E-08	1.2193E-07	1.0537E-06	2.5082E-06
-1.6050E-08	5.2015E-08	-6.4714E-07	1.3555E-06
-1.9879E-08	-2.6936E-08	-2.6138E-07	7.3347E-07
-6.6776E-08	-7.2687E-08	5.0302E-07	1.6715E-06
-1.2631E-07	-1.3602E-08	1.6919E-06	2.0771E-06
-2.1573E-07	1.7742E-08	-1.4802E-06	1.3510E-06
-1.8865E-07	6.8955E-08	4.9651E-07	1.5532E-06
-1.5568E-07	7.3428E-08	-4.2381E-07	3.1681E-06
-9.5848E-08	1.2222E-07	2.1664E-06	2.3951E-06
-3.4144E-08	7.8476E-08	1.5388E-07	2.0512E-06
-4.6466E-08	2.8440E-08	-1.1670E-06	1.6410E-06
-1.3256E-07	4.1700E-08	-1.5735E-06	2.0892E-06
-1.3615E-07	-1.3533E-08	4.6801E-07	1.6254E-06
-9.9783E-08	7.9307E-09	1.9513E-06	2.6616E-06
-1.5303E-07	3.9654E-08	-5.6346E-08	2.3769E-06
-8.9157E-08	5.7701E-08	-1.0738E-06	2.7742E-06
-5.1271E-08	7.6902E-08	-6.1449E-07	2.7382E-06
1.2177E-08	3.0828E-08	7.3301E-07	2.1737E-06
-3.5165E-08	-2.1237E-08	-2.3558E-07	2.3592E-06
-1.4107E-08	-7.4290E-08	-5.8041E-07	1.6260E-06
-7.6322E-08	-8.6019E-08	-3.9883E-07	2.2987E-06
-1.5440E-07	-8.7056E-08	1.0741E-07	9.3203E-07
-1.7258E-07	-5.5709E-08	-1.4779E-07	2.3063E-06
-1.9449E-07	1.1165E-08	7.5390E-07	2.8561E-06
-1.8903E-07	4.7922E-08	4.2531E-07	3.0810E-06
-1.5307E-07	6.5322E-08	7.0607E-09	2.1200E-06
-1.1194E-07	7.7222E-08	8.3439E-07	9.1798E-07
-4.0539E-08	1.4249E-08	8.9623E-07	1.5832E-06
-4.4511E-08	-4.0820E-08	3.4431E-07	1.9129E-06
-7.8601E-08	-1.8621E-08	-1.2469E-06	4.9122E-08
-1.1311E-07	-6.7327E-08	-1.1835E-06	1.8427E-06
-1.6553E-07	-7.9208E-08	1.9361E-07	1.6032E-06
-1.7047E-07	-2.3624E-09	1.0782E-06	2.7332E-06
-1.7547E-07	-1.2000E-08	-4.7397E-07	1.6933E-06
-1.1749E-07	4.5635E-08	-9.5041E-07	1.2378E-06
-1.5441E-07	9.1146E-08	1.6353E-06	2.9512E-06
-6.8009E-08	6.1307E-08	8.5594E-07	1.3483E-06
-5.4171E-08	2.8738E-08	-5.7259E-07	6.0565E-07
-3.0593E-08	-1.5415E-09	3.8474E-07	2.3096E-06
-1.3233E-07	-2.6517E-08	2.6013E-06	5.3386E-07
-7.9730E-08	6.3242E-09	4.3110E-07	1.3037E-06
-7.8730E-08	-2.0716E-08	3.0711E-07	2.2834E-06
-9.9232E-08	1.5819E-08	1.4460E-07	3.9446E-06
-9.6607E-08	-1.6252E-08	1.0895E-06	1.3950E-06
-1.0706E-07	2.1693E-08	1.5350E-06	2.3524E-06
-1.4445E-07	4.8733E-09	4.9300E-07	3.3280E-06
-8.4116E-08	6.6873E-08	6.9065E-07	1.6679E-06
-1.1024E-07	6.8432E-08	-1.6376E-07	2.3487E-06
-6.5417E-08	7.0746E-08	-8.1438E-08	5.0003E-07
-1.2520E-07	5.7415E-08	1.0686E-06	1.7982E-06
-9.1004E-08	6.4845E-08	5.2881E-07	1.7955E-06
-1.4242E-08	6.7863E-08	7.2489E-07	8.3738E-07
-1.8167E-08	1.5404E-08	4.8138E-07	1.7253E-06
-7.8023E-09	-7.7699E-09	1.4398E-06	2.2037E-06
-6.2976E-09	1.3118E-08	-2.7043E-07	5.7360E-07
3.4955E-08	-4.9869E-09	1.2572E-06	2.1358E-06
-5.8186E-08	-4.0946E-08	6.9232E-07	2.9030E-06
-1.0688E-08	-1.8285E-08	3.9133E-07	1.4349E-06
-7.2855E-08	-7.4581E-09	-1.3559E-06	3.6146E-06
-7.4233E-08	-1.9055E-08	1.8449E-06	1.1438E-06
-4.6240E-08	-2.5818E-08	1.8017E-07	1.1392E-06
-7.7193E-08	-2.3521E-08	4.5724E-07	2.6905E-06
-5.1744E-08	-4.4620E-08	-1.8405E-07	1.6331E-06
-5.3422E-08	-3.9563E-08	5.6351E-07	1.2114E-06
-5.4830E-08	-2.7058E-08	5.4419E-07	1.5806E-06
-9.2451E-08	-6.2393E-08	8.2632E-07	3.6704E-07
-5.5887E-08	-5.3354E-08	1.0489E-06	2.2654E-06
-1.1766E-07	-4.3308E-08	4.7051E-07	1.2669E-06
-7.5242E-08	5.2260E-09	-4.2218E-07	1.6349E-06
-6.7736E-08	1.1820E-08	6.1182E-07	1.3816E-06
-8.0722E-08	3.0248E-08	-1.1341E-06	1.7968E-06
-1.1543E-07	1.3755E-08	1.4336E-06	1.5666E-06
-9.5274E-08	1.3753E-08	4.3062E-07	1.5858E-06
-6.9665E-08	1.3647E-08	1.6567E-08	5.1339E-07
-7.3180E-08	3.8478E-08	-1.0554E-07	1.4535E-06
-6.8619E-08	5.2340E-09	-3.1608E-09	1.5797E-06
-6.3866E-08	2.2706E-08	8.6741E-07	-3.2978E-08
-2.9570E-08	-4.6218E-09	1.0013E-07	1.3877E-06
-6.9205E-08	-1.9260E-09	-7.0129E-07	8.3800E-07
-6.8985E-09	2.1971E-08	-1.5992E-07	2.3566E-06
-4.8198E-08	2.0766E-08	1.3756E-06	2.5816E-07
-7.0555E-08	-1.0976E-08	6.9157E-07	1.1320E-06
-8.3843E-08	4.8942E-09	1.2634E-06	1.2695E-06
-4.4142E-08	8.5718E-09	1.3590E-06	2.0729E-06
