jMRUI Data Textfile

Filename: Export_to_jmrui.txt

PointsInDataset: 2048
DatasetsInFile: 1
SamplingInterval: 0.250000
ZeroOrderPhase: 0E0
BeginTime: 0E0
TransmitterFrequency: 1.2326E8
MagneticField: 2.8936E0
TypeOfNucleus:  
NameOfPatient:  
DateOfExperiment:  
Spectrometer:  
AdditionalInfo: 
SignalNames:  


Signal and FFT
sig(real)	sig(imag)	fft(real)	fft(imag)
Signal 1 out of 1 in file
1.3929E-06	5.1944E-07	1.6663E-07	3.6029E-07
2.0123E-06	1.2751E-07	1.4531E-06	3.5626E-07
1.3444E-06	-5.6820E-07	-1.5476E-06	7.9656E-07
9.6132E-07	-8.9631E-07	-1.3022E-06	-1.0051E-06
6.5555E-08	-1.1138E-06	-1.0454E-06	-2.9762E-07
-4.4344E-07	-8.6619E-07	2.3319E-07	-5.1225E-07
-8.1632E-07	-4.5662E-07	-5.3073E-07	5.6274E-07
-5.7514E-07	4.7571E-08	-7.4863E-07	1.0043E-06
-2.4917E-07	1.7552E-07	-2.0410E-06	2.4252E-06
1.8316E-07	1.9741E-07	-2.2181E-06	1.3058E-06
3.8141E-07	-1.6577E-08	1.7506E-06	1.7395E-07
4.2212E-07	-2.6999E-07	-1.2138E-06	4.7474E-08
1.4006E-07	-4.8993E-07	-5.9178E-07	1.9033E-07
-5.7374E-08	-4.5914E-07	9.7546E-07	2.1962E-06
-3.1381E-07	-2.8894E-07	-3.5781E-07	1.8580E-06
-2.9616E-07	-1.4232E-07	-1.8803E-06	-8.1415E-07
-2.1428E-07	-2.2608E-08	-2.4486E-07	6.1935E-07
-3.3615E-08	2.1021E-08	-6.3411E-07	-8.1667E-07
-6.2457E-09	-1.0137E-07	2.2563E-07	5.3893E-07
-3.8289E-08	-1.3051E-07	1.2749E-06	7.1622E-07
-2.2868E-07	-2.3090E-07	-8.9399E-08	1.1567E-06
-3.0918E-07	-1.7652E-07	-7.6280E-07	1.5030E-06
-4.1035E-07	-5.5015E-08	-1.0816E-06	1.3542E-06
-2.9375E-07	8.2705E-08	-7.9548E-07	7.2176E-07
-2.1734E-07	2.4334E-07	-1.5521E-07	1.1068E-06
-2.5447E-08	2.1206E-07	6.4364E-07	6.7506E-07
3.3906E-08	1.2048E-07	-2.6122E-06	-1.9785E-07
9.5974E-08	-4.1248E-08	1.2739E-06	1.2833E-06
1.2411E-08	-4.2367E-08	2.1982E-07	4.6444E-07
-8.5220E-08	-3.9127E-09	-1.2045E-06	3.0302E-07
-1.8414E-07	1.5231E-08	2.9971E-07	9.2927E-07
-1.6140E-07	1.3761E-07	1.4948E-07	1.6977E-06
-2.1275E-07	2.5083E-07	-9.7070E-07	9.7346E-07
-1.0581E-07	3.0049E-07	-4.5242E-07	1.7292E-06
-5.7202E-08	2.9709E-07	-7.1768E-07	1.0002E-06
9.8003E-08	2.0730E-07	-1.1044E-06	1.2276E-07
9.6893E-08	2.1885E-07	1.3757E-06	-4.2744E-07
1.6815E-07	6.4975E-08	3.7214E-07	1.4683E-06
1.5494E-07	8.4935E-08	1.0076E-07	1.2560E-06
7.6222E-08	1.3406E-07	1.1764E-06	-4.5151E-07
1.3585E-07	1.3351E-07	-1.1182E-06	6.1269E-07
1.7474E-07	1.4966E-07	-4.5462E-07	7.0250E-07
1.8363E-07	6.4403E-08	-1.9744E-06	4.1397E-08
1.6764E-07	-2.4946E-08	3.4963E-07	2.3424E-07
1.2423E-07	-1.1632E-07	-7.5931E-07	2.2532E-06
1.1017E-07	-1.3415E-07	5.1076E-07	-8.0093E-08
1.0302E-08	-8.2990E-08	-2.6564E-07	-8.8098E-07
1.0589E-08	-7.2989E-08	-6.7215E-07	1.3370E-06
-5.2717E-08	3.8839E-08	-3.7746E-07	-1.9831E-07
-7.8004E-09	2.9456E-08	5.3738E-07	1.1587E-06
5.4998E-09	5.0613E-08	-8.5737E-08	-1.3269E-06
5.4847E-08	2.0570E-08	-1.1045E-06	1.9623E-06
6.0011E-08	2.1111E-08	-7.4001E-07	1.8043E-07
2.8722E-08	-5.9089E-08	-4.0661E-07	1.5096E-06
-1.1897E-08	-8.2774E-08	-2.0511E-06	1.3317E-06
-1.0425E-07	-4.6768E-08	3.4785E-08	1.9068E-07
-1.1630E-07	1.8456E-08	-3.5452E-07	2.1130E-06
-1.6817E-07	9.5908E-08	3.4033E-07	8.7724E-07
-1.0733E-07	1.3152E-07	-5.7327E-07	7.1143E-07
-2.8489E-08	1.6436E-07	-4.0622E-07	4.1583E-07
7.0862E-08	2.6225E-08	-4.7293E-07	1.4447E-06
8.5000E-08	-4.6986E-08	1.9213E-06	1.7667E-06
1.7259E-08	-4.4278E-08	6.5344E-08	1.0360E-06
-7.4039E-08	-1.3416E-07	5.9837E-07	-3.4876E-07
-1.4204E-07	-5.0994E-08	5.4832E-07	2.9078E-06
-2.7064E-07	1.3608E-08	-7.3776E-07	2.5436E-06
-1.7941E-07	1.1058E-07	-3.3936E-08	3.0512E-07
-1.4845E-07	1.3861E-07	-1.0582E-07	3.9273E-07
-8.8198E-08	1.9180E-07	-5.2265E-07	-1.5834E-07
-5.5911E-08	1.5938E-07	-8.6023E-08	6.7202E-07
-3.9694E-08	9.2691E-08	-1.5930E-06	-8.4167E-08
-2.9712E-08	5.4206E-08	-1.0256E-06	1.1752E-06
-1.0481E-07	8.1719E-08	-1.3254E-06	9.4258E-07
-8.4899E-08	1.2687E-07	3.4134E-07	4.4883E-07
-9.0501E-08	1.4148E-07	-9.8190E-08	1.0776E-06
-3.6081E-08	1.3858E-07	9.1312E-08	-3.3498E-07
4.6165E-08	1.5590E-07	2.5514E-07	3.5565E-07
2.0844E-08	1.0060E-07	-2.2226E-07	-5.1800E-07
1.5013E-09	3.0178E-08	1.3633E-07	-1.8337E-07
-3.6287E-08	2.2802E-08	-1.6633E-07	9.1557E-07
-1.2228E-07	5.2014E-08	-1.3356E-06	1.2780E-06
-1.3474E-07	9.2159E-08	-1.9092E-08	1.2917E-06
-1.3795E-07	1.6210E-07	-1.3644E-06	1.4242E-06
-3.7798E-08	2.0931E-07	1.1646E-06	2.3046E-06
7.1855E-08	1.8927E-07	3.5105E-07	7.7926E-07
1.3182E-07	1.6362E-07	-8.1528E-07	6.6095E-07
1.4941E-07	4.5133E-08	-4.6786E-07	1.7292E-06
1.1437E-07	-4.5788E-08	-5.7635E-07	9.3290E-08
-1.0169E-08	-5.2758E-08	1.6627E-06	1.3075E-06
-9.1849E-08	-7.2016E-09	9.5177E-07	1.4555E-06
-1.1559E-07	2.4358E-08	-6.9977E-07	6.2570E-07
-1.3261E-07	1.0124E-07	1.4194E-07	1.7728E-06
-5.4079E-08	1.1085E-07	-2.0466E-07	1.1067E-06
2.0340E-09	1.4254E-07	-1.1047E-06	1.3393E-06
7.1764E-08	9.9534E-08	5.1804E-07	8.2121E-07
3.9747E-08	4.3532E-08	-9.6458E-07	1.7573E-06
6.8442E-08	6.1676E-08	1.7063E-06	8.9182E-07
6.4553E-08	-3.2318E-08	-2.4699E-07	1.4301E-06
1.6340E-08	-6.9195E-08	7.7423E-08	2.0589E-06
-3.8623E-08	-5.1433E-08	-2.3414E-08	1.1039E-06
-6.2295E-08	-2.7390E-08	5.8635E-07	2.4278E-07
-7.0319E-08	-4.4642E-08	-2.2422E-06	-4.7409E-07
-1.0656E-07	-1.4389E-08	-5.1869E-07	3.8353E-07
-9.2848E-08	2.6733E-10	6.2443E-07	4.9698E-08
-8.2177E-08	-2.9323E-09	4.2683E-07	1.4558E-06
-1.3672E-07	-3.3539E-08	1.6807E-06	1.5743E-06
-5.0035E-08	-1.9235E-08	4.6553E-07	9.6947E-07
-7.7150E-08	-1.6968E-08	-1.3333E-06	6.5969E-07
-6.7032E-08	1.4117E-08	2.0398E-07	6.6275E-07
-8.0802E-08	3.7320E-08	-7.9125E-07	2.4600E-06
-2.6141E-08	3.5984E-08	9.0423E-08	4.6353E-07
-6.5457E-08	5.9394E-08	-8.3400E-07	1.2630E-06
-7.9879E-08	4.8688E-08	-8.3935E-08	-1.1712E-06
-2.8347E-08	-6.0653E-09	-8.0489E-07	7.7311E-07
-5.5165E-08	5.1531E-09	-7.3241E-07	3.6155E-07
-3.4019E-08	2.4613E-08	-1.3962E-06	1.6871E-06
-4.1883E-08	2.7650E-08	-8.4366E-07	1.1356E-06
-1.0178E-07	-2.3985E-08	-5.9896E-07	3.1387E-07
-6.1126E-08	-1.4946E-08	-9.1445E-07	1.1016E-07
-7.4586E-08	5.2215E-08	1.2928E-07	-8.2188E-07
-5.2440E-08	4.2309E-08	2.7024E-07	6.5597E-07
-4.8440E-08	6.4549E-08	4.1508E-08	4.8342E-07
3.8340E-08	4.0081E-08	4.4277E-07	9.2143E-07
4.9795E-08	-3.0233E-08	-1.1678E-06	6.5149E-07
2.9835E-08	2.9212E-09	4.2840E-07	1.0673E-06
-1.8585E-08	-6.4531E-09	2.2837E-08	4.1496E-07
-7.4713E-10	-1.5747E-08	7.7845E-08	2.9680E-06
-1.0160E-07	1.3312E-08	-2.3988E-06	9.1316E-07
-7.0113E-08	5.0164E-09	4.9196E-07	1.6758E-06
-2.7212E-08	2.1017E-08	7.7528E-07	2.3348E-06
-3.0788E-08	4.5692E-08	5.2289E-07	1.5198E-06
7.1754E-09	6.1476E-08	-4.5857E-07	9.1564E-07
1.4516E-08	2.6989E-08	3.8668E-07	1.1409E-06
1.2192E-08	3.3345E-09	1.1135E-06	1.1819E-06
6.7388E-08	1.4584E-08	-5.5923E-07	1.7691E-06
-1.3392E-08	-1.4826E-08	1.2643E-06	1.2329E-07
4.5071E-08	-1.9493E-08	-1.0161E-07	-3.2925E-07
1.4713E-08	-2.4877E-08	-1.8196E-07	7.8772E-07
3.2371E-08	-6.4993E-08	-1.1242E-06	1.1742E-07
3.1351E-08	-5.7882E-08	6.5129E-07	3.0616E-07
1.4198E-08	-9.4828E-08	-1.0043E-06	1.0910E-06
-1.5679E-08	-6.6977E-08	1.5036E-07	7.5725E-07
-2.0362E-08	-4.4663E-08	1.0856E-06	1.1945E-06
-4.2827E-08	-5.3506E-08	-1.3320E-07	2.1893E-06
-5.6588E-08	-3.3312E-08	-3.1184E-07	2.0320E-07
-2.8060E-08	-6.0422E-08	-1.6371E-06	2.5659E-06
-2.9900E-08	-2.9634E-08	-5.6627E-07	1.1670E-06
-5.8184E-09	-4.4256E-08	-1.0713E-06	9.2551E-07
2.2836E-08	-8.5605E-08	1.1965E-06	9.9218E-07
1.1172E-08	-2.2101E-08	-2.9897E-07	1.8983E-06
-2.2328E-08	-5.5288E-09	-4.4175E-07	1.3827E-06
-3.4493E-08	-3.2421E-08	7.7935E-07	3.3204E-07
-3.9335E-08	-4.7566E-08	-1.3422E-06	2.0601E-06
-4.1902E-08	-5.1718E-08	-1.1482E-07	-7.1430E-07
-1.8031E-08	7.3829E-09	8.1356E-07	1.5838E-06
-4.8938E-08	-2.2575E-09	4.3918E-07	1.2890E-06
-3.9423E-08	1.5359E-08	8.0753E-07	6.8396E-07
-3.4389E-08	7.0478E-09	-2.0025E-07	1.8647E-06
4.9238E-08	4.2450E-09	-7.7924E-07	1.7885E-07
3.3466E-08	2.0706E-08	-3.9383E-07	8.3784E-07
7.0554E-08	-3.0554E-08	1.0406E-06	1.1895E-06
4.9440E-09	-4.8458E-08	-1.6236E-06	1.5826E-06
2.7695E-08	-3.5150E-08	-1.5241E-06	1.5816E-06
-9.8207E-09	-1.9404E-08	-1.5658E-06	8.2152E-07
-2.1713E-08	-4.6307E-08	1.6566E-06	-8.7935E-07
-1.3332E-08	-1.8325E-08	-9.3868E-07	1.7776E-06
4.6991E-09	-2.9957E-08	9.2237E-07	4.9343E-07
-4.4491E-08	-2.4231E-08	-4.6354E-07	9.6003E-07
1.5038E-09	8.6725E-09	1.1290E-06	1.1458E-06
-8.5878E-09	2.2070E-08	3.0647E-07	1.8023E-06
8.7980E-08	3.8685E-08	-5.7824E-07	1.7652E-06
3.8590E-08	-7.4011E-09	-2.7090E-07	1.9488E-06
4.1737E-08	5.6559E-09	1.0370E-06	7.9713E-07
8.1977E-08	-9.1127E-09	6.6900E-07	1.6692E-06
7.1396E-08	-3.1822E-08	-2.0057E-06	1.1054E-06
5.3712E-08	-2.6761E-08	-6.9184E-07	1.6878E-06
5.2390E-08	-4.8737E-08	-1.1670E-07	2.9967E-07
5.9959E-08	-6.1810E-08	7.2189E-10	6.3446E-07
2.4755E-08	-3.6849E-08	-2.7276E-09	8.5569E-07
5.4413E-08	-5.7575E-08	2.0821E-06	2.0262E-06
4.2929E-08	-3.9353E-08	-6.0565E-08	2.1126E-06
6.3172E-08	-2.0393E-08	-9.8877E-07	-6.9569E-08
7.8382E-08	-2.6239E-08	-6.9034E-08	1.5577E-07
4.4451E-08	-4.2536E-08	-4.7242E-07	2.9092E-06
4.9257E-08	-1.2042E-07	3.9845E-08	2.1588E-06
1.8323E-08	-9.8936E-08	7.9172E-07	1.6944E-06
1.1958E-08	-7.4971E-08	-2.0273E-07	-5.9678E-07
-1.4177E-08	-6.9330E-08	1.0156E-06	2.0848E-06
2.9482E-09	-4.8002E-08	-5.2347E-08	-1.0184E-07
9.7453E-09	-5.2329E-08	1.5295E-06	1.5548E-06
-3.3975E-08	-3.4102E-09	9.4122E-07	-5.0737E-07
-9.9762E-10	-4.3741E-08	5.1360E-07	1.7524E-06
1.1815E-08	-1.0205E-08	-1.6717E-07	1.4116E-06
-5.8308E-09	-9.0010E-09	1.4769E-06	2.2202E-06
2.1271E-08	-1.0137E-08	-2.4003E-07	5.1696E-07
1.4890E-09	1.3218E-08	1.2700E-06	-4.2229E-07
-2.6716E-08	-7.3416E-09	2.6463E-06	6.3547E-07
3.5002E-08	-6.5908E-08	4.2290E-07	2.3831E-06
-3.0120E-08	-2.8621E-08	-1.4687E-07	1.4712E-06
5.1177E-08	1.8691E-08	7.3659E-07	6.6532E-07
4.2042E-08	-4.7294E-09	-7.2853E-07	5.9475E-07
4.4664E-08	-4.0399E-08	-3.8409E-07	2.2602E-06
4.8943E-08	1.7985E-08	-6.7853E-07	2.3248E-06
3.8160E-08	-2.6258E-08	8.3495E-07	8.8832E-07
