jMRUI Data Textfile

Filename: Export_to_jmrui.txt

PointsInDataset: 2048
DatasetsInFile: 1
SamplingInterval: 0.250000
ZeroOrderPhase: 0E0
BeginTime: 0E0
TransmitterFrequency: 1.2326E8
MagneticField: 2.8936E0
TypeOfNucleus:  
NameOfPatient:  
DateOfExperiment:  
Spectrometer:  
AdditionalInfo: 
SignalNames:  


Signal and FFT
sig(real)	sig(imag)	fft(real)	fft(imag)
Signal 1 out of 1 in file
1.1765E-06	5.2766E-07	3.4706E-07	1.4550E-06
1.3857E-06	2.3374E-07	-2.8697E-07	9.8047E-07
9.7077E-07	-3.0718E-07	-1.2431E-06	8.7808E-07
7.2695E-07	-5.5937E-07	6.6423E-07	1.0726E-06
9.0486E-08	-7.2766E-07	-7.1776E-07	-1.6147E-07
-2.5845E-07	-6.0354E-07	-1.7357E-06	-9.9973E-07
-4.6706E-07	-3.5366E-07	-6.0855E-07	2.3703E-06
-3.4592E-07	-7.9062E-09	-9.6233E-07	5.2314E-07
-1.1678E-07	1.4662E-07	1.0176E-06	-5.2596E-07
2.1048E-07	9.5069E-08	3.3337E-07	8.8437E-07
3.3044E-07	-4.0730E-08	-1.0908E-06	6.0152E-07
3.1231E-07	-2.4399E-07	-8.0903E-07	2.2363E-06
1.5110E-07	-4.0711E-07	1.4766E-06	6.6564E-07
-5.4050E-08	-3.8816E-07	1.4465E-07	-1.7778E-07
-2.3338E-07	-2.5361E-07	1.4394E-07	-6.4603E-07
-2.0812E-07	-5.9471E-08	-3.8958E-07	1.3156E-06
-1.7084E-07	-9.7189E-09	1.8443E-07	1.7573E-06
3.8765E-09	1.3146E-08	-2.3272E-07	1.4023E-06
3.0137E-08	-5.7898E-08	-7.0953E-07	1.0086E-06
6.7510E-08	-1.8041E-07	-2.5452E-07	-1.0626E-07
-5.8820E-08	-2.6655E-07	8.2294E-08	6.3923E-07
-1.5358E-07	-1.7603E-07	-9.1330E-07	-1.1170E-07
-2.6389E-07	-1.1682E-07	-2.8223E-07	3.1929E-06
-2.8732E-07	-2.7084E-09	-4.5806E-09	1.1908E-06
-2.0516E-07	1.2306E-07	-4.2967E-07	-1.5151E-07
-5.7552E-08	1.5087E-07	1.0755E-06	-1.3786E-08
-7.0249E-09	9.1815E-08	2.2784E-06	3.0351E-06
8.6402E-08	-1.0063E-08	1.9551E-06	-2.8013E-07
-2.7513E-09	-6.4408E-08	1.0130E-06	1.5515E-07
-1.0034E-07	-5.5536E-08	-2.3321E-07	-1.6829E-07
-1.6676E-07	4.7242E-08	1.5241E-06	-4.2027E-07
-1.7830E-07	8.1131E-08	1.6109E-07	9.3596E-07
-1.7039E-07	1.6683E-07	-3.1201E-07	9.6521E-07
-7.3111E-08	2.1406E-07	-1.9176E-06	1.0518E-07
7.7569E-09	1.6333E-07	4.6415E-07	8.9868E-07
1.0348E-07	1.3810E-07	-4.2129E-07	1.6668E-06
8.0378E-08	1.0252E-07	-6.6579E-07	1.0214E-06
1.3047E-07	9.3223E-08	-1.0919E-06	4.3699E-07
7.1894E-08	5.9849E-08	1.1549E-06	9.6535E-07
4.7179E-08	9.3235E-08	-8.7067E-07	1.5070E-06
3.5533E-08	7.8734E-08	1.2014E-07	5.3646E-07
7.5279E-08	7.2649E-08	4.4167E-08	5.7476E-07
1.0700E-07	2.3347E-08	1.0114E-06	1.2781E-06
1.5691E-07	-2.9935E-08	1.0149E-06	3.7586E-07
1.4548E-07	-6.9331E-08	1.3580E-07	7.2847E-07
9.9852E-08	-2.7384E-08	-6.7125E-07	-2.9861E-07
3.9464E-08	-5.5870E-08	-9.1971E-07	1.3649E-06
1.6484E-08	-4.3400E-08	-6.6151E-07	2.0871E-06
-5.7888E-08	1.8755E-08	1.8954E-07	4.0866E-07
-1.1547E-08	-1.6476E-08	3.1470E-07	4.4612E-07
-1.4776E-08	2.3666E-08	6.0971E-07	1.3817E-06
4.4646E-08	-2.0098E-08	-1.1177E-06	-5.7170E-07
1.9049E-09	-2.0818E-08	-1.2563E-06	-2.2397E-07
3.7027E-08	-7.2927E-08	1.2731E-06	1.0460E-06
-1.7409E-08	-7.5124E-08	2.1731E-07	1.5027E-06
-8.1667E-08	-6.5523E-08	-1.3420E-06	1.0519E-06
-1.0655E-07	-1.8897E-08	1.0563E-06	4.0133E-07
-1.3886E-07	4.1751E-08	-6.7642E-07	1.6700E-07
-7.5673E-08	2.8567E-08	1.3913E-06	-4.5726E-07
-2.4367E-08	4.5120E-08	-5.7112E-07	4.6151E-07
3.6630E-08	-9.0373E-09	-1.0678E-07	1.3961E-06
5.7090E-08	-4.3687E-08	-5.1126E-07	-2.7009E-07
-1.1798E-08	-6.1059E-08	2.7019E-07	-1.3865E-07
-3.2646E-08	-8.8410E-08	-1.6948E-06	-1.1871E-06
-8.4048E-08	-1.9607E-08	1.1174E-06	3.9639E-07
-2.2212E-07	-3.4842E-08	-8.4932E-07	9.0847E-07
-1.7383E-07	-3.3802E-09	4.8259E-07	1.8629E-06
-1.3522E-07	7.1718E-08	-8.2857E-08	4.8362E-07
-1.0008E-07	7.1478E-08	-8.6487E-09	1.1473E-06
-7.6562E-08	1.2024E-07	1.5337E-06	1.0030E-06
-5.5259E-08	3.2486E-08	6.8515E-07	-2.1231E-07
-9.2553E-08	4.6732E-08	8.7787E-07	5.0950E-07
-6.3261E-08	6.4895E-08	4.3559E-07	7.4577E-07
-8.5028E-08	1.0495E-07	-8.5540E-07	1.1872E-06
-1.1674E-07	9.4463E-08	-1.3798E-06	-3.0649E-07
-5.3704E-08	1.3719E-07	-1.0512E-07	2.2009E-07
-1.2811E-08	8.5126E-08	9.2575E-07	-6.1349E-07
2.1551E-08	5.4841E-08	4.7757E-07	8.0071E-08
2.8458E-08	4.1959E-08	5.9612E-07	7.3378E-08
-1.9751E-08	1.2281E-08	-3.9909E-07	4.5450E-07
-1.4890E-07	5.1029E-08	6.6884E-07	1.0308E-06
-1.2338E-07	7.4909E-08	-9.3924E-08	1.2812E-06
-5.2940E-08	1.3012E-07	8.9510E-07	5.7747E-07
-5.2228E-08	1.4424E-07	8.7843E-07	9.8596E-07
1.7842E-08	1.1785E-07	-8.1606E-07	2.4652E-06
8.3443E-08	5.9589E-08	5.4409E-07	1.2610E-06
9.5239E-08	3.2938E-08	1.5310E-06	-3.9462E-07
2.6333E-08	3.3192E-09	1.7527E-06	8.7978E-07
6.9725E-09	-6.0003E-08	-8.9987E-07	7.0288E-07
6.9727E-09	-3.8555E-08	3.8914E-08	1.7514E-06
-2.9335E-08	-5.6652E-08	-4.7128E-07	5.3213E-07
-9.1979E-08	-6.9132E-09	3.8851E-07	1.3235E-06
-4.0837E-08	4.3808E-08	1.7368E-06	2.0616E-07
-2.2406E-08	3.6073E-08	-8.1175E-08	-5.2571E-07
-1.4557E-08	9.2258E-08	2.3008E-06	3.5190E-07
3.9318E-08	4.7379E-08	-3.8300E-07	-1.0276E-06
8.2582E-09	9.8316E-09	-1.1522E-06	1.3731E-06
1.2070E-08	-2.8840E-08	1.7533E-06	3.0457E-07
9.0485E-09	-3.0121E-08	5.1104E-07	-6.0342E-08
-2.3546E-08	-7.1454E-08	-1.5037E-07	1.2681E-06
-7.9503E-08	-4.8832E-08	9.4062E-07	9.2310E-07
-4.3938E-08	-2.2673E-08	-6.8225E-07	1.5758E-06
-1.0625E-07	-2.0439E-08	7.3744E-07	4.9464E-07
-5.7998E-08	1.8583E-08	2.9350E-07	4.6269E-07
-7.8657E-08	-2.9920E-08	1.9664E-06	2.4040E-07
-6.8573E-08	-8.7033E-09	-7.4146E-07	1.1119E-06
-7.7503E-08	-5.1869E-09	-1.3743E-07	-1.3928E-07
-9.3575E-08	-3.9353E-08	-6.0018E-07	1.0659E-06
-1.3203E-07	2.9272E-08	-6.6236E-07	5.5263E-07
-6.9386E-08	3.7268E-08	3.8520E-07	8.9958E-07
-4.7974E-08	8.0436E-08	2.1862E-07	1.6426E-06
-4.1543E-08	6.6033E-08	-4.1106E-07	-2.3402E-07
-2.9203E-08	1.7930E-08	7.0746E-07	1.5424E-06
-6.2207E-09	-6.4038E-10	-1.6057E-07	1.7784E-06
-1.3433E-08	-3.5849E-08	-8.0805E-07	4.2187E-07
-4.7896E-08	-8.4103E-09	1.3652E-06	-5.0184E-07
-8.3179E-08	-7.7764E-09	-5.9064E-07	9.4752E-08
-8.0618E-08	2.5588E-11	-2.0255E-06	5.0421E-07
-1.4636E-07	5.8466E-08	-3.9272E-07	2.8261E-07
-8.5076E-08	6.5755E-08	-1.2078E-06	5.2083E-07
-7.7222E-08	5.5768E-08	-1.5497E-06	7.6964E-07
-7.2005E-09	2.8798E-08	3.7178E-07	8.6520E-07
5.4079E-09	8.6675E-09	-9.9102E-07	5.9107E-07
3.0632E-08	-1.2456E-08	7.1352E-07	9.5934E-07
-2.3878E-08	3.1723E-09	2.6204E-07	4.8725E-07
-3.9798E-08	-1.8454E-08	-4.5298E-07	8.0048E-07
-5.2561E-08	-2.3445E-08	-3.3776E-07	1.3072E-06
-7.1517E-08	-7.3919E-09	-1.7198E-06	3.0853E-07
-1.0601E-07	7.4762E-10	-9.4560E-07	1.9908E-06
-3.5800E-08	2.3791E-08	2.2691E-07	1.8722E-06
-1.6767E-08	4.2534E-09	-3.0028E-07	4.6555E-07
3.1598E-08	-8.8178E-09	-2.0267E-07	1.3065E-06
-2.1860E-08	-2.7672E-09	8.4739E-07	1.7505E-06
-1.0735E-08	2.9808E-09	5.7499E-07	1.8488E-06
6.3132E-09	4.3269E-08	9.5350E-07	3.3366E-07
-4.6747E-08	3.2223E-09	-4.3793E-07	-6.0977E-07
1.7569E-08	-3.7256E-08	-6.8634E-07	-6.2547E-07
-6.0908E-09	-7.3757E-09	-8.3647E-07	-5.4489E-07
7.5244E-08	-4.7715E-08	5.8834E-09	1.7695E-06
1.6988E-08	-6.0557E-08	-1.5863E-07	6.7188E-07
1.4401E-08	-1.2352E-07	1.8135E-06	5.2704E-07
-5.0218E-08	-5.0848E-08	1.4742E-06	1.0917E-06
-3.5509E-08	-5.0374E-08	2.2041E-07	8.8027E-07
-4.2946E-08	-4.3923E-08	-7.6125E-07	4.6803E-09
-4.4318E-08	-3.6552E-08	1.1058E-07	2.0754E-07
-5.7161E-08	9.4590E-09	-1.2066E-06	8.5079E-07
-4.2411E-08	-1.2560E-08	6.8498E-07	-1.0153E-06
4.9655E-09	-5.6680E-08	-1.4431E-06	-7.7715E-07
1.6670E-08	-2.1145E-08	-5.1481E-07	2.6428E-06
-1.8629E-08	-5.5643E-08	8.9022E-07	2.7306E-06
-2.1811E-08	-2.5746E-08	6.0040E-07	-3.6978E-07
-5.9152E-08	-6.4706E-08	-5.4617E-07	-1.0426E-07
-8.4045E-09	-3.9192E-08	-1.8714E-08	5.0940E-07
-5.6353E-08	-2.4490E-08	-9.4252E-07	-1.0506E-06
-4.4530E-08	-2.3057E-08	8.0102E-07	1.2213E-06
1.9164E-09	-3.7123E-09	3.9188E-07	1.4285E-07
-2.9180E-08	4.5205E-09	5.0206E-07	-2.3234E-07
-3.7383E-09	1.3366E-08	-3.8741E-07	9.5946E-07
1.4176E-08	1.2792E-08	6.3483E-07	1.0378E-06
2.2669E-08	-1.8627E-08	8.0912E-07	1.7975E-06
6.4092E-09	-4.3310E-09	2.1845E-07	1.0583E-08
5.4161E-09	-2.8291E-08	-1.6453E-06	-1.9773E-07
9.2106E-10	-7.0573E-09	6.4708E-07	1.4290E-06
1.8016E-08	-6.7587E-08	-4.2240E-07	1.0160E-06
-3.6487E-08	-2.8179E-08	1.3850E-07	-5.7215E-07
-1.0351E-08	-5.5846E-08	7.5785E-07	1.3075E-06
-1.1628E-08	-1.7697E-08	6.3099E-07	6.5801E-07
-3.8640E-08	-6.1895E-08	7.5566E-07	6.3846E-07
2.8218E-08	-7.7713E-09	4.0693E-07	1.1424E-06
2.4057E-08	-1.6752E-08	-2.1877E-07	8.7338E-07
2.8228E-08	5.8159E-08	-3.4496E-07	1.8414E-06
2.1927E-09	4.8584E-08	-2.2707E-07	2.2251E-07
2.3651E-08	-4.2435E-09	-1.4467E-06	2.5407E-07
2.1743E-08	3.2891E-08	1.1268E-06	6.6330E-07
3.5073E-08	-1.2906E-08	1.4785E-06	2.0253E-06
3.0399E-08	-6.4769E-08	1.7746E-06	2.4746E-07
7.5677E-08	-3.4653E-08	-3.9378E-07	2.5692E-07
6.8092E-08	-4.5874E-08	4.9776E-07	-1.5949E-07
2.7538E-08	-3.8689E-08	1.4234E-06	1.1852E-06
8.1755E-08	-2.8954E-08	7.3307E-07	2.1086E-07
1.1145E-08	-2.9417E-08	-6.2881E-07	-1.3834E-06
1.0472E-08	-7.4798E-08	7.9780E-07	1.1247E-06
5.5122E-08	-6.4876E-08	7.7583E-07	1.3822E-06
-1.1438E-08	-4.0399E-08	1.9712E-06	-4.7976E-07
-2.6644E-08	-2.9206E-08	-6.2759E-07	8.5847E-07
1.1500E-08	-7.8554E-08	1.9049E-06	4.1338E-07
-5.8213E-09	-5.9828E-08	-6.7580E-07	9.1034E-07
1.7665E-08	-3.9825E-08	-7.9644E-07	-9.9854E-08
-6.5454E-08	-1.7032E-08	8.6957E-08	3.2471E-06
-1.6855E-08	-2.5305E-08	-5.0377E-07	1.8215E-06
2.3443E-08	-4.5721E-09	9.3541E-07	-7.2309E-07
-3.3090E-09	-1.5040E-09	1.6936E-06	-2.6472E-07
-1.2918E-08	1.6484E-08	6.4795E-07	1.5309E-06
3.0935E-08	3.2643E-09	-2.2059E-08	1.9148E-06
1.1141E-08	-5.8169E-08	-6.4562E-07	9.4909E-07
-6.0587E-09	1.1082E-09	-1.0433E-06	1.0270E-06
-4.5546E-08	-8.5389E-09	1.7256E-06	9.1394E-07
-1.5974E-08	-1.0600E-08	9.3033E-10	1.1016E-06
3.0254E-08	-2.4410E-08	9.8119E-08	-9.4698E-07
-2.4722E-09	7.5943E-09	1.4377E-07	-5.0511E-07
3.8323E-08	1.0671E-08	5.1800E-07	6.1026E-07
2.5407E-09	-8.5197E-10	1.8486E-07	7.0046E-07
2.3574E-08	3.0375E-08	5.6854E-07	4.1617E-07
2.0015E-08	-3.9373E-08	1.8430E-08	8.0952E-07
