jMRUI Data Textfile

Filename: Export_to_jmrui.txt

PointsInDataset: 2048
DatasetsInFile: 1
SamplingInterval: 0.250000
ZeroOrderPhase: 0E0
BeginTime: 0E0
TransmitterFrequency: 1.2326E8
MagneticField: 2.8936E0
TypeOfNucleus:  
NameOfPatient:  
DateOfExperiment:  
Spectrometer:  
AdditionalInfo: 
SignalNames:  


Signal and FFT
sig(real)	sig(imag)	fft(real)	fft(imag)
Signal 1 out of 1 in file
1.2949E-06	7.4393E-07	-2.2629E-07	-2.6378E-07
9.7815E-07	2.5347E-07	-6.3547E-07	7.5129E-07
6.5838E-07	-1.2638E-07	7.1607E-07	7.4936E-07
5.5281E-07	-3.9091E-07	-1.2840E-06	-5.8391E-07
8.6277E-08	-5.2155E-07	8.1012E-07	-3.8045E-07
-1.5067E-07	-4.2118E-07	-3.6437E-07	1.3335E-06
-3.4058E-07	-2.5710E-07	-5.3194E-07	2.5520E-07
-2.3375E-07	4.3442E-08	7.4384E-07	1.2398E-06
-2.2965E-08	7.8438E-08	-4.3515E-07	-4.8174E-07
1.9856E-07	5.8286E-08	2.3748E-07	8.1322E-07
3.0437E-07	-9.7870E-08	-1.2532E-06	1.9532E-07
2.4980E-07	-1.9822E-07	-1.6298E-06	6.1784E-07
1.3442E-07	-3.5142E-07	2.7556E-07	3.3807E-07
-4.6975E-08	-3.6567E-07	1.9012E-06	1.9352E-06
-2.0774E-07	-2.2912E-07	1.9856E-06	-3.3399E-07
-1.8917E-07	-8.1545E-08	6.8542E-07	1.0288E-06
-9.7422E-08	1.9140E-08	4.3787E-07	3.9975E-07
3.7052E-08	5.8441E-08	6.1080E-07	8.8615E-07
9.7154E-08	-5.8734E-10	-4.3897E-07	6.9632E-07
6.9670E-08	-1.8793E-07	8.3215E-08	-6.2235E-07
-6.1481E-08	-2.3698E-07	1.4510E-06	1.4723E-06
-1.5493E-07	-2.0972E-07	2.5062E-06	-8.8724E-07
-2.5022E-07	-1.3323E-07	2.0574E-07	-1.7544E-07
-2.1566E-07	1.4376E-08	1.3792E-07	-1.8944E-07
-1.4280E-07	9.7197E-08	3.4848E-07	2.9129E-07
1.6697E-08	7.8046E-08	-2.0224E-07	5.0395E-07
6.5439E-08	4.8896E-08	1.2531E-06	1.5160E-07
7.4918E-08	-9.0790E-08	3.5089E-07	5.1230E-08
-3.2205E-08	-1.0327E-07	-5.3520E-07	-9.1690E-07
-1.0626E-07	-7.1233E-08	2.7946E-07	7.4926E-07
-1.9023E-07	-5.0421E-08	-1.1375E-06	1.3217E-06
-1.2117E-07	3.1684E-08	4.9387E-07	1.7302E-06
-1.1679E-07	1.3371E-07	8.3646E-07	-2.7160E-07
-1.2638E-07	1.4630E-07	1.2370E-06	5.4631E-07
-2.3458E-08	1.2369E-07	5.3838E-07	3.0222E-08
7.2679E-08	6.7616E-08	1.2591E-07	6.8944E-07
7.0638E-08	4.8434E-08	1.3334E-06	1.9623E-07
6.7119E-08	3.2668E-08	2.6973E-07	2.5706E-06
8.2378E-08	3.8110E-08	-5.8924E-07	5.2023E-07
6.2694E-08	3.7206E-08	-2.6277E-08	-9.0153E-07
6.7828E-08	7.8280E-08	9.2532E-08	-1.1315E-06
6.6391E-08	1.0119E-07	-4.0895E-08	-8.7679E-07
1.3522E-07	4.3032E-08	1.9412E-07	1.7133E-06
1.4484E-07	-2.1004E-08	8.3863E-07	1.1138E-06
1.1922E-07	-6.9739E-08	1.7736E-06	6.2164E-08
9.4897E-08	-1.2821E-07	7.2454E-07	1.3971E-06
1.6691E-08	-1.3346E-07	-2.4207E-07	2.0529E-06
5.8156E-09	-8.1500E-08	1.1943E-06	2.3329E-06
-4.9518E-08	1.3165E-08	1.2722E-06	-1.3638E-06
-2.6154E-08	1.1486E-08	4.1185E-09	-6.1634E-07
-1.8791E-09	2.5503E-08	-1.0838E-06	1.8872E-06
1.3838E-08	-1.8173E-08	-3.0135E-07	1.1059E-06
1.2400E-08	-2.5809E-08	-3.2256E-07	1.8522E-07
9.7980E-09	-2.7363E-08	1.8638E-09	7.1910E-07
4.6683E-08	-9.2553E-08	6.5597E-07	9.0755E-07
5.2291E-09	-9.1462E-08	4.1341E-07	-5.5433E-07
-6.5524E-08	-4.4835E-08	-6.6326E-08	3.4672E-07
-1.2769E-07	-6.7864E-09	1.7128E-06	6.8534E-07
-1.2078E-07	1.6997E-08	7.7715E-07	-3.6155E-07
-5.3459E-08	2.9705E-08	-2.8255E-07	1.6635E-07
-2.2286E-09	-1.1664E-08	-3.1404E-07	-1.0071E-07
4.4172E-08	-2.1740E-08	2.0429E-07	-1.8095E-07
1.3533E-08	-3.7765E-08	-3.9120E-07	-7.1698E-07
-2.9943E-08	-4.7514E-09	-1.3583E-06	4.0507E-07
-7.7709E-08	-9.8807E-08	-1.2706E-06	1.7767E-07
-1.2950E-07	-4.7150E-08	8.2810E-07	-8.5043E-07
-1.9811E-07	2.6067E-10	1.0783E-06	5.6098E-07
-1.4176E-07	9.9934E-09	3.8010E-07	1.5439E-06
-1.2555E-07	7.2984E-08	-4.9336E-07	7.1011E-07
-1.0230E-07	8.0782E-08	-3.3336E-07	1.5008E-06
-8.0598E-08	6.4112E-08	2.2405E-06	4.1845E-07
-9.7921E-08	5.4514E-08	-1.1017E-07	1.7221E-07
-7.9884E-08	7.0409E-08	1.4561E-07	1.5671E-06
-3.1159E-08	1.0330E-07	2.3090E-07	-3.2927E-07
-9.7149E-08	9.6250E-08	-1.5946E-06	-3.3918E-08
-5.0999E-08	1.5233E-07	1.5744E-06	1.9204E-06
1.0692E-09	8.5298E-08	-8.9068E-08	-7.5032E-08
-2.8967E-09	1.0349E-07	1.0147E-06	1.1094E-07
-3.3719E-08	5.4512E-10	-2.2369E-07	5.1225E-08
-1.0170E-07	5.2267E-08	8.5481E-07	3.6717E-08
-8.2609E-08	3.1925E-08	2.5020E-06	8.9938E-07
-1.0427E-07	5.5455E-08	5.7741E-07	-4.3509E-07
-6.3868E-08	7.5207E-08	-9.9150E-08	-9.1304E-07
-6.7409E-08	1.0253E-07	-3.0911E-07	2.6290E-07
-3.7694E-08	1.0479E-07	-3.9516E-07	8.4892E-07
3.4149E-08	1.1116E-07	-4.9209E-07	1.1055E-06
6.4864E-08	7.9116E-08	1.3687E-08	1.6240E-06
5.9864E-08	9.6958E-09	6.9259E-07	5.0928E-07
1.6012E-08	-3.1405E-08	-3.1749E-07	1.2428E-06
-2.8263E-08	-5.0914E-08	3.3366E-07	7.9787E-07
-1.1990E-07	-1.9297E-08	-9.2664E-07	2.0857E-06
-7.5189E-08	5.5684E-09	1.7040E-07	9.7202E-07
-8.7861E-08	6.3274E-08	-1.3858E-06	1.4017E-06
-4.7403E-08	1.0624E-07	1.3129E-06	1.5934E-06
-4.1233E-08	6.4882E-08	1.5843E-06	1.0545E-06
3.0644E-08	5.3087E-08	1.6331E-06	4.9335E-07
3.7788E-08	1.8566E-08	-8.3024E-07	1.7261E-06
1.0984E-08	-3.1585E-08	1.2000E-06	1.2256E-06
3.2917E-09	-7.6547E-08	8.0844E-07	-5.4644E-07
-2.9555E-08	-1.7374E-08	8.8263E-07	-1.0108E-07
-5.1382E-08	-5.6911E-08	1.2852E-06	7.2210E-07
-5.6488E-08	-2.0974E-08	1.2476E-06	4.0307E-07
-7.3384E-08	-1.9736E-08	-5.8685E-08	1.3465E-06
-9.9780E-08	6.3485E-08	-3.6903E-07	6.7462E-07
-7.0621E-08	1.8990E-08	1.4204E-06	5.8586E-07
-5.3247E-08	-1.4557E-08	4.4182E-07	2.9468E-07
-4.3221E-08	-3.0790E-08	1.2776E-06	6.1117E-07
-6.2419E-08	-3.0417E-08	1.1726E-06	-9.6669E-07
-6.7762E-08	-2.5048E-09	7.5157E-08	4.9858E-07
-5.5216E-08	-1.0642E-09	5.2749E-07	7.5258E-07
-8.0243E-08	4.9548E-08	9.5313E-07	1.2810E-06
-5.2325E-08	2.1264E-08	-1.4514E-06	7.9603E-08
-3.6773E-08	3.7054E-08	1.1625E-06	1.3917E-06
-3.5149E-08	-2.9550E-08	1.8566E-06	1.6680E-06
-3.6051E-08	1.4508E-08	5.5168E-08	8.8020E-07
-4.6498E-08	1.4019E-08	4.8415E-08	1.9358E-06
-4.6787E-08	1.1745E-10	1.8773E-06	-4.8974E-07
-7.8894E-08	3.5746E-09	1.2088E-06	7.1017E-07
-3.9618E-08	5.4397E-08	2.0041E-07	1.8805E-06
-7.7370E-08	4.6602E-08	6.4864E-07	1.3378E-06
-6.5360E-08	8.1836E-08	5.3841E-07	1.6834E-06
-1.5747E-08	2.5673E-08	2.1145E-06	1.2369E-06
-3.9004E-09	1.6979E-08	-1.1694E-06	7.3658E-07
3.4737E-08	-2.8599E-08	5.4967E-07	2.4867E-06
1.5111E-08	5.4790E-09	1.7993E-06	8.5970E-07
-9.0511E-09	-1.4585E-08	1.2939E-06	5.9935E-07
-3.4219E-08	-3.2162E-08	1.9039E-06	-6.5218E-07
-4.8716E-08	1.0340E-08	8.9432E-07	1.6660E-06
-2.8892E-08	-1.8458E-08	7.3051E-07	-6.5458E-07
-7.7722E-08	-1.8760E-09	1.9111E-06	1.4015E-06
-1.6933E-08	5.9231E-08	-5.4032E-07	1.7188E-06
-1.4493E-08	2.1640E-08	-2.5944E-07	9.1307E-07
-1.2622E-08	4.6025E-08	1.8287E-06	1.2209E-07
-3.9915E-09	1.0260E-08	-1.9607E-07	1.7366E-06
4.0297E-08	3.5065E-08	-1.2678E-07	-2.8917E-07
3.5409E-08	1.3780E-08	-4.5712E-07	1.1078E-06
-2.4566E-09	-3.7781E-08	1.4617E-06	2.6204E-06
-2.2524E-08	-4.7763E-08	-2.8222E-08	2.0482E-06
1.3095E-08	-2.1912E-08	3.8889E-07	1.4436E-06
1.6965E-08	-3.5575E-08	-2.2299E-07	2.0556E-06
-4.5499E-08	-5.4584E-08	7.3575E-07	1.6402E-06
-2.0868E-08	-1.7515E-08	1.0723E-06	3.3125E-07
-7.1444E-08	-2.3402E-08	8.8557E-07	6.5660E-07
-4.5301E-08	-2.0531E-08	3.7083E-07	4.2896E-07
-1.2510E-08	-1.2208E-08	1.2306E-06	5.8546E-07
-1.8221E-08	-3.8499E-08	-3.3010E-07	1.3783E-06
-2.9109E-08	-2.6028E-08	1.0432E-06	8.1526E-07
-6.8763E-08	-5.3172E-08	-5.3844E-07	2.7507E-07
-6.8986E-08	-3.8575E-08	1.1494E-06	2.4149E-06
-2.8959E-08	-3.2722E-08	1.5813E-07	1.9824E-06
-1.2045E-09	1.1790E-08	6.2363E-07	1.1707E-06
-1.1804E-08	-1.4394E-08	1.2886E-06	1.2678E-06
-2.9769E-08	-3.4840E-09	1.2837E-06	1.2270E-06
-1.3824E-08	-1.6547E-09	2.4564E-06	1.2967E-06
-5.7694E-08	2.4452E-09	7.2750E-07	1.8151E-06
-9.1773E-09	-9.1661E-09	4.8019E-07	2.1892E-06
7.1125E-09	-3.0176E-09	1.2468E-06	5.0907E-07
-1.0312E-08	-1.2420E-09	2.2010E-06	-1.3347E-06
3.0298E-09	-7.6867E-09	-2.8235E-07	1.2847E-07
-1.2703E-08	2.0683E-08	-4.9250E-07	5.5334E-07
5.6083E-09	6.3711E-09	1.4407E-06	1.2727E-06
1.2768E-08	-4.9229E-09	1.9916E-06	1.5969E-06
2.1491E-09	-8.6130E-09	-2.9942E-09	7.0750E-07
1.6789E-08	-3.5162E-08	-6.3174E-07	1.1385E-06
-2.4051E-08	-3.6575E-08	1.5418E-07	6.6985E-07
-3.8046E-08	-4.9104E-08	1.3273E-07	7.9937E-07
-8.1367E-08	2.9639E-09	4.8400E-07	2.5204E-07
-4.8028E-08	4.4420E-08	5.6602E-07	2.2952E-06
-1.3474E-08	1.5165E-08	1.1322E-06	1.8531E-06
1.6003E-09	3.2271E-08	-9.0224E-07	2.3788E-06
8.1812E-09	2.5746E-08	5.6406E-07	8.3305E-08
7.1053E-09	5.4019E-08	-2.8033E-07	9.8742E-07
8.1384E-08	3.1558E-08	1.1266E-06	1.6434E-07
3.0988E-08	-6.2101E-09	1.1467E-07	1.1584E-06
3.3720E-08	-3.0661E-08	1.2200E-06	1.3087E-06
-1.1736E-08	-4.8834E-08	1.1246E-06	1.2877E-06
2.8487E-08	-5.1657E-08	6.3220E-07	1.1006E-06
1.6746E-08	-2.2926E-08	1.8827E-06	9.3931E-07
3.4841E-08	-1.1138E-08	1.6118E-06	1.4091E-06
3.2064E-08	-1.6532E-08	1.1481E-06	9.9148E-07
1.1343E-08	3.1769E-08	-1.2722E-06	6.3328E-07
1.3795E-08	-3.1939E-08	8.4428E-07	5.2329E-07
2.7928E-08	-4.1559E-08	2.8983E-06	-1.0558E-07
5.9787E-08	-7.7023E-08	-8.9638E-07	1.1539E-06
5.4894E-08	-5.3590E-08	1.4861E-06	2.0131E-06
1.6589E-08	-4.2354E-08	1.6381E-06	-3.0004E-07
8.9687E-09	-2.5479E-08	4.2523E-07	2.5694E-06
1.1136E-09	-6.7614E-08	5.7992E-07	1.2788E-06
-4.0929E-08	-3.7659E-08	9.9914E-08	1.1822E-06
-2.9609E-08	-4.3507E-08	9.3627E-07	2.1094E-06
-5.3117E-08	3.3524E-08	9.0260E-07	6.1595E-07
-2.7101E-09	-2.0019E-08	1.0300E-07	1.0784E-06
3.6117E-08	3.6721E-09	1.9429E-06	-8.2971E-07
2.5371E-08	1.2367E-08	1.2449E-07	-1.6085E-06
5.9699E-08	9.3558E-09	1.4791E-06	3.1866E-07
6.3097E-09	8.7623E-09	4.6340E-07	-6.8791E-08
1.0409E-08	-2.1308E-08	1.2110E-06	5.9802E-07
6.5503E-09	-9.0757E-09	8.6273E-07	1.1512E-06
-1.6668E-08	2.0642E-08	3.9907E-09	2.8393E-06
3.1233E-08	4.1242E-08	1.5844E-06	4.6739E-07
2.1456E-08	7.5732E-09	8.4643E-07	-2.1163E-07
3.6883E-08	-1.9345E-09	5.9350E-07	8.3138E-07
3.3921E-08	-1.5364E-08	1.9118E-07	1.3225E-06
2.7754E-08	2.2341E-08	7.8560E-07	2.5306E-06
4.4134E-08	-4.8149E-09	5.0263E-07	1.3294E-06
