jMRUI Data Textfile

Filename: Export_to_jmrui.txt

PointsInDataset: 2048
DatasetsInFile: 1
SamplingInterval: 0.250000
ZeroOrderPhase: 0E0
BeginTime: 0E0
TransmitterFrequency: 1.2326E8
MagneticField: 2.8936E0
TypeOfNucleus:  
NameOfPatient:  
DateOfExperiment:  
Spectrometer:  
AdditionalInfo: 
SignalNames:  


Signal and FFT
sig(real)	sig(imag)	fft(real)	fft(imag)
Signal 1 out of 1 in file
1.2008E-06	7.3625E-07	1.1420E-06	7.3378E-07
6.6490E-07	1.1258E-07	4.0868E-07	2.5284E-07
4.9657E-07	-1.7424E-07	-1.1225E-06	1.3093E-06
3.8793E-07	-3.1884E-07	5.3334E-07	-5.5398E-09
-7.2759E-09	-4.5732E-07	4.4785E-07	-3.4180E-08
-1.6695E-07	-3.4926E-07	6.1661E-07	1.7224E-06
-3.1638E-07	-1.7909E-07	2.2453E-07	1.8449E-06
-1.9790E-07	1.2649E-08	-5.2573E-07	-7.3911E-07
-6.0058E-08	8.0061E-08	4.5219E-07	1.5834E-06
1.8248E-07	5.0624E-08	1.0848E-06	3.5959E-07
2.3307E-07	-1.1672E-07	1.8741E-06	1.7923E-06
2.1964E-07	-2.1383E-07	6.4629E-07	1.4585E-06
7.1835E-08	-3.6529E-07	7.1477E-07	4.9364E-07
-2.4839E-08	-3.2245E-07	1.6794E-06	7.2062E-07
-1.7582E-07	-1.7815E-07	-1.4275E-06	-6.2811E-07
-1.7466E-07	-8.5835E-08	7.1068E-07	6.5335E-07
-9.4031E-08	-1.1571E-08	3.1915E-07	-3.7431E-07
5.0925E-09	-3.5128E-10	2.2487E-06	6.5922E-07
4.2082E-08	-7.3610E-08	2.5473E-07	1.8106E-06
6.4925E-08	-1.2749E-07	1.7939E-08	5.3355E-07
-2.4973E-08	-1.6727E-07	-1.0173E-06	1.3143E-06
-7.0068E-08	-1.5699E-07	5.9106E-07	1.4063E-06
-1.4586E-07	-1.1212E-07	-4.0325E-07	-1.2102E-07
-1.2733E-07	-5.0080E-08	4.0935E-07	-8.8704E-07
-1.0285E-07	2.0808E-08	9.6306E-07	3.3057E-07
-1.4950E-08	-3.3381E-09	9.0547E-08	1.1375E-06
1.1309E-08	4.9697E-08	1.6714E-06	2.7708E-06
9.6429E-08	-7.5920E-08	1.4929E-06	1.8325E-06
4.6746E-08	-1.3800E-07	-7.1140E-07	7.0925E-07
-4.9568E-08	-1.4887E-07	9.6790E-07	6.9803E-07
-1.0760E-07	-1.7062E-08	1.9118E-06	1.2384E-06
-1.3497E-07	-4.8176E-09	6.7461E-07	-4.6827E-07
-1.7878E-07	1.0401E-07	1.5195E-06	-5.0325E-07
-1.0928E-07	1.8831E-07	1.2660E-06	-1.4438E-06
-4.8957E-08	1.5125E-07	1.2975E-06	1.3641E-06
5.4352E-08	9.6831E-08	1.8594E-06	7.0056E-08
7.2911E-08	6.7052E-08	-5.1559E-08	6.6474E-07
9.6466E-08	-1.7342E-08	-9.4842E-07	2.0009E-06
2.6466E-08	1.3326E-08	-4.5686E-07	6.4572E-08
1.1729E-08	3.7137E-08	4.5391E-07	4.0125E-07
6.0421E-08	6.4021E-08	-3.5966E-07	-2.0125E-07
4.6090E-08	8.2824E-08	-2.6395E-07	-1.0593E-06
2.6775E-08	5.2532E-08	-6.4509E-09	-4.5561E-07
5.2562E-08	7.9024E-08	-9.5291E-07	4.1758E-07
5.1713E-08	-1.2061E-08	-4.2486E-07	2.2297E-06
1.1974E-07	-3.2559E-08	-4.3726E-08	8.7550E-08
5.4130E-08	-3.4720E-08	2.5878E-07	-6.2808E-07
6.1202E-08	-8.7329E-08	2.9816E-07	9.0390E-07
-4.1770E-08	-1.5742E-08	1.3929E-06	1.4571E-07
-3.7615E-08	2.6358E-08	1.1996E-06	1.4245E-06
-2.3540E-09	4.9409E-08	4.5341E-07	5.8175E-07
2.7848E-08	-2.2663E-08	7.2437E-08	2.0448E-06
1.6580E-08	-1.0270E-09	5.6319E-07	2.2289E-07
4.2929E-08	-6.7853E-08	1.7558E-06	-7.4671E-07
1.4440E-08	-1.0176E-07	-6.0095E-08	1.1478E-06
-5.8548E-08	-9.5397E-08	7.3946E-07	1.2294E-06
-8.1691E-08	-6.6869E-08	-5.9054E-08	2.8227E-06
-8.5674E-08	-1.8538E-08	9.9242E-07	-7.2455E-07
-1.0409E-07	2.1711E-08	8.9819E-08	4.4030E-07
-6.9990E-08	5.4035E-08	3.1816E-10	1.9890E-06
-1.9712E-08	4.7390E-08	1.7406E-06	1.0074E-06
-9.6762E-09	7.1817E-08	8.1258E-07	1.1838E-06
1.3229E-08	4.5295E-08	2.5983E-08	4.0044E-07
-3.4291E-08	1.5268E-09	2.0061E-06	-5.4487E-07
-2.4838E-09	-1.3488E-08	-1.8395E-06	5.3081E-07
-9.3264E-08	-9.6112E-09	5.9035E-07	2.1090E-07
-1.2796E-07	-1.3151E-08	7.0523E-07	8.7317E-07
-1.5263E-07	1.9198E-08	1.4371E-06	6.8257E-07
-9.2667E-08	1.6200E-08	4.7787E-07	1.5236E-06
-7.9862E-08	4.9668E-08	-9.9734E-07	8.5252E-07
-9.7622E-08	8.4883E-08	1.5991E-06	6.8334E-07
-8.4601E-08	1.0536E-07	3.6344E-07	1.4860E-06
-4.8876E-08	1.2830E-07	-2.6896E-07	-6.2022E-07
-1.8191E-08	1.0875E-07	1.2972E-06	8.8703E-07
-6.8001E-08	1.1194E-07	-5.5193E-07	7.5431E-07
-1.9728E-08	1.0859E-07	1.6158E-06	8.0505E-07
-1.1555E-08	1.0623E-07	-5.1390E-07	4.7208E-07
-3.1149E-09	1.1881E-08	7.9440E-07	1.6363E-06
2.9831E-09	5.4970E-08	5.8659E-07	1.5522E-06
-3.8861E-08	-2.3505E-08	5.7054E-07	6.9856E-07
-8.3249E-08	1.5328E-08	1.0350E-06	1.3261E-06
-1.2795E-07	4.3413E-08	4.6685E-07	3.0586E-07
-8.5106E-08	9.1873E-08	4.8268E-07	2.7558E-06
-1.1688E-08	7.9497E-08	-1.0970E-07	1.2376E-06
2.5585E-08	9.7829E-08	-1.0323E-06	3.4812E-07
6.0072E-08	7.9654E-08	2.0940E-06	8.9890E-07
6.4445E-08	3.8396E-08	9.0222E-07	1.1174E-07
7.6969E-08	-2.7723E-08	1.8786E-06	-7.3651E-07
4.7302E-09	-2.2417E-09	-2.7861E-07	1.1187E-06
-1.6524E-08	-1.8781E-08	2.3278E-07	1.9228E-06
-1.3540E-08	1.6705E-09	4.1837E-07	5.9810E-07
-4.0058E-08	9.6820E-10	1.2710E-06	7.6680E-07
-3.3661E-08	2.4755E-08	5.3591E-07	9.1498E-07
-3.3256E-08	9.6404E-08	-3.5757E-07	-5.6348E-07
-2.2855E-08	8.4651E-08	1.4526E-06	1.7786E-06
1.1541E-08	3.8888E-08	1.5013E-07	1.4174E-07
1.0321E-08	-1.1196E-08	1.1590E-06	1.6650E-06
5.0411E-08	-2.0399E-08	1.3948E-06	2.4456E-07
-2.3834E-08	-3.7132E-08	1.1394E-06	-4.0897E-07
-9.2555E-09	-1.2020E-08	1.4994E-06	-1.1746E-07
-4.2484E-08	-2.6087E-08	1.0611E-06	2.6448E-07
-5.5485E-08	-2.2476E-08	7.1405E-07	-1.5703E-07
-3.9320E-08	-1.3986E-08	1.0447E-06	-6.9353E-08
-2.7084E-08	4.1147E-08	1.0206E-06	4.2942E-07
-3.6355E-08	2.6182E-08	1.1834E-06	7.7514E-07
-2.7903E-09	1.1812E-08	5.8181E-07	1.3543E-06
-3.6949E-08	-1.6446E-08	7.6542E-07	1.3702E-06
-2.8619E-08	-4.7002E-08	1.4010E-06	2.5600E-07
-4.5284E-08	-2.9510E-08	2.2902E-08	3.2488E-07
-1.1052E-07	1.9346E-08	-7.9285E-09	9.3754E-07
-7.9048E-08	2.6650E-08	-6.3792E-07	1.6162E-06
-8.0148E-08	2.9886E-08	4.7027E-07	1.0898E-06
-6.6368E-08	3.9659E-08	1.6147E-06	7.9938E-07
-1.6688E-08	4.7422E-08	2.3665E-07	-3.5041E-08
1.5789E-08	7.8088E-09	-5.9956E-07	-3.0963E-07
-6.2783E-09	-1.1313E-08	1.3919E-06	8.1411E-07
-3.2006E-08	-7.7735E-08	-1.8994E-07	-7.5348E-07
-5.8089E-08	4.6186E-08	1.1097E-06	9.7744E-07
-8.1649E-08	2.2201E-08	2.3118E-06	8.0415E-07
-4.5718E-08	3.5852E-08	1.7688E-06	1.5497E-06
-4.1799E-08	4.5007E-08	4.5776E-07	-8.7655E-07
-2.9957E-08	7.6530E-08	2.1293E-07	1.1571E-06
2.7882E-08	3.8518E-08	9.7763E-07	1.7707E-06
1.7992E-08	7.0884E-09	-7.9268E-07	-4.5014E-08
3.4074E-08	-2.6733E-08	1.3243E-06	5.2585E-07
2.6316E-09	-1.9883E-08	1.0469E-08	5.8901E-07
-2.3352E-08	9.0085E-09	1.7375E-06	1.4408E-06
-3.7609E-08	1.7714E-08	7.8502E-07	-9.1916E-07
-3.2730E-08	6.5909E-09	8.1221E-08	1.7773E-06
-2.4157E-08	4.2472E-08	2.0969E-06	1.2125E-06
-1.2201E-08	4.3566E-08	1.8118E-06	1.7432E-06
9.4124E-09	-3.1902E-09	6.7956E-07	8.8489E-08
1.2536E-08	-3.4326E-09	-9.2222E-08	3.4869E-07
7.0696E-08	1.4891E-08	1.1381E-06	1.1448E-07
3.5790E-08	5.6097E-08	1.5012E-06	4.4963E-07
1.6320E-08	1.4019E-08	1.9458E-06	8.2703E-07
2.9530E-09	-1.0481E-08	9.6904E-07	2.0350E-07
-1.5253E-08	-5.0919E-08	6.1621E-07	2.0310E-06
5.9392E-08	-4.7234E-09	4.8353E-07	1.9400E-06
-1.3581E-09	-6.1736E-08	1.2951E-06	3.5614E-07
1.3790E-08	-7.9025E-08	8.9364E-08	1.2765E-06
1.8975E-08	-3.5695E-08	1.8074E-07	-6.0686E-07
6.9364E-09	-4.0861E-08	7.4310E-08	9.8551E-08
-1.4625E-08	-1.3934E-08	4.1531E-07	1.9251E-07
1.0480E-08	-1.9103E-08	1.7125E-06	1.2673E-06
-1.0149E-08	-3.3392E-08	-7.8213E-07	8.2753E-07
-2.5851E-08	8.9296E-09	1.7020E-07	1.0209E-06
-1.8632E-08	-2.5178E-08	-2.8192E-07	7.4612E-07
-1.4147E-08	-3.3850E-08	1.3210E-07	5.6608E-07
-6.0074E-08	-1.0787E-08	1.7312E-06	3.4847E-07
-1.1972E-09	2.5035E-08	2.8115E-06	1.4854E-06
-4.9194E-08	-1.5832E-08	-1.6863E-07	-4.1976E-07
-2.8040E-08	-1.2556E-09	1.9249E-06	-2.6269E-07
1.7494E-08	2.4932E-08	6.5731E-07	8.7608E-07
1.1986E-08	1.1295E-08	-2.7854E-07	3.1378E-07
2.0767E-08	3.2086E-08	9.9888E-07	-7.4096E-08
1.0359E-08	-1.1337E-08	2.5374E-06	1.6674E-06
-2.7171E-08	1.8900E-09	2.1050E-06	9.0812E-07
1.5445E-08	2.3504E-08	1.1630E-06	5.9213E-07
-8.0340E-09	3.3692E-08	7.2950E-07	1.1163E-06
3.1778E-10	-1.3441E-08	7.5644E-08	-5.8972E-09
1.7520E-08	-1.6820E-08	1.9953E-06	3.7443E-08
-1.9932E-08	-5.6720E-08	3.8987E-07	2.4220E-06
-2.2415E-08	-5.7670E-08	-1.6613E-07	1.7403E-07
7.8768E-09	-4.4760E-08	1.7416E-06	1.0558E-06
-4.4737E-08	-2.0789E-08	6.2253E-07	1.5703E-06
-1.7375E-08	-2.1424E-08	1.6774E-07	-6.9180E-07
-4.1802E-08	2.8784E-08	2.2718E-06	-1.1931E-06
-4.5079E-08	1.7755E-08	8.2941E-07	3.0921E-07
-7.5019E-09	4.2567E-08	1.9390E-06	8.4744E-07
5.4563E-08	1.6892E-09	9.8985E-07	1.5272E-06
4.0241E-08	6.9186E-09	1.2993E-06	1.8311E-06
-2.6276E-09	7.5412E-09	-3.1641E-07	-9.4033E-08
3.5585E-08	-3.3023E-09	1.2135E-06	-3.1557E-07
4.4559E-08	-3.1792E-09	-4.5195E-07	1.3370E-06
4.5059E-08	-2.5560E-08	8.2316E-07	-5.9872E-07
3.1214E-08	-3.1414E-08	2.7097E-06	1.4837E-07
2.0074E-08	-3.0950E-08	1.7017E-06	-1.4376E-07
1.2618E-08	-4.5537E-08	6.1860E-07	1.1004E-06
1.5538E-08	-3.2868E-08	1.1653E-06	1.4631E-06
9.2780E-09	-2.2482E-08	6.1852E-07	1.1191E-06
2.5882E-08	-1.7503E-08	1.3986E-06	3.8369E-07
2.5756E-12	-3.9490E-08	2.0929E-06	1.1044E-06
4.9575E-08	-4.0825E-08	2.3620E-06	6.2860E-07
3.3276E-09	-3.2317E-08	1.8866E-06	4.4571E-07
-1.6573E-08	-3.3568E-08	1.2756E-06	1.2264E-06
1.1964E-08	-5.1175E-08	-7.3964E-07	2.1530E-06
2.9045E-08	-4.5492E-08	-2.4529E-07	1.9593E-06
-3.8430E-09	-8.6933E-08	1.4501E-06	-8.7571E-07
-3.8913E-08	-4.9943E-09	-2.5534E-07	-7.1284E-09
-5.3459E-08	3.9299E-08	8.8408E-07	1.4331E-06
-3.0028E-08	4.4047E-09	9.5659E-07	1.6176E-06
9.9250E-09	2.2923E-08	6.5023E-07	1.6416E-06
-2.8799E-09	1.2815E-08	-5.1403E-07	-3.7036E-07
4.4607E-08	1.9374E-08	1.3863E-06	4.7410E-08
2.6778E-08	3.8578E-08	1.7064E-06	-6.4654E-08
-4.3966E-09	2.6959E-08	-1.3686E-07	-2.4321E-07
1.0404E-08	-1.9976E-08	1.5179E-06	2.9809E-07
3.2708E-09	-3.2495E-08	4.3950E-07	5.0152E-07
1.0307E-08	1.8402E-08	1.4681E-06	7.3063E-07
3.3619E-08	2.3271E-08	1.2174E-06	6.8248E-07
2.5099E-09	-1.9797E-09	5.6945E-08	1.0098E-06
3.4622E-08	-1.0930E-08	9.9459E-07	6.8961E-07
3.8704E-09	-3.9975E-08	4.7583E-07	3.6841E-07
2.6874E-08	4.7611E-09	2.2170E-06	9.5991E-07
-6.3771E-09	2.0447E-09	1.6872E-06	6.4946E-07
