jMRUI Data Textfile

Filename: Export_to_jmrui.txt

PointsInDataset: 2048
DatasetsInFile: 1
SamplingInterval: 0.250000
ZeroOrderPhase: 0E0
BeginTime: 0E0
TransmitterFrequency: 1.2326E8
MagneticField: 2.8936E0
TypeOfNucleus:  
NameOfPatient:  
DateOfExperiment:  
Spectrometer:  
AdditionalInfo: 
SignalNames:  


Signal and FFT
sig(real)	sig(imag)	fft(real)	fft(imag)
Signal 1 out of 1 in file
1.0898E-05	3.4826E-06	4.5375E-06	3.6000E-06
1.0728E-05	-1.8366E-06	5.3982E-06	4.3829E-06
8.0503E-06	-6.0653E-06	5.0806E-06	2.5986E-06
3.8620E-06	-8.0395E-06	3.0240E-06	2.8026E-06
-4.6453E-07	-7.7633E-06	5.7709E-06	6.5484E-06
-3.5309E-06	-5.5186E-06	7.3830E-06	2.5036E-06
-4.6822E-06	-2.1245E-06	5.0816E-06	2.8213E-06
-3.8564E-06	7.8407E-07	5.6090E-06	3.7246E-06
-1.8726E-06	2.4109E-06	6.9912E-06	3.1614E-06
3.8659E-07	2.4816E-06	6.0019E-06	1.5035E-06
1.9036E-06	1.2733E-06	5.6629E-06	1.8528E-06
2.4378E-06	-3.4075E-07	4.1942E-06	9.1657E-07
1.8680E-06	-1.6586E-06	3.5410E-06	3.2513E-06
7.8324E-07	-2.4677E-06	4.9593E-06	3.1448E-06
-3.3311E-07	-2.4306E-06	5.0448E-06	2.4799E-06
-1.1625E-06	-1.9381E-06	3.5884E-06	1.8284E-06
-1.5309E-06	-1.3352E-06	3.0590E-06	4.2323E-06
-1.5316E-06	-7.7871E-07	4.9550E-06	4.3851E-06
-1.5096E-06	-4.7340E-07	5.3038E-06	3.8296E-06
-1.5688E-06	-2.1062E-07	5.6264E-06	3.0737E-06
-1.5649E-06	7.6838E-08	4.9551E-06	2.3375E-06
-1.6272E-06	5.0280E-07	3.9968E-06	2.4965E-06
-1.3077E-06	9.6122E-07	3.2888E-06	3.0674E-06
-8.5236E-07	1.3737E-06	3.3558E-06	5.2820E-06
-1.9768E-07	1.4693E-06	5.3198E-06	2.8997E-06
4.8140E-07	1.1381E-06	4.3026E-06	1.8713E-06
7.1805E-07	4.8684E-07	2.9213E-06	5.7266E-06
6.7277E-07	-1.6790E-07	6.0633E-06	5.1944E-06
1.9152E-07	-5.0634E-07	5.5963E-06	4.2607E-06
-5.2303E-07	-5.3620E-07	5.6681E-06	4.1562E-06
-9.9562E-07	-1.2131E-07	6.2327E-06	4.3976E-06
-1.2209E-06	5.0141E-07	6.5456E-06	2.7691E-06
-9.2614E-07	1.1956E-06	5.1708E-06	2.8626E-06
-3.7874E-07	1.5683E-06	5.2665E-06	3.1017E-06
2.9692E-07	1.5648E-06	5.0563E-06	3.2516E-06
8.5136E-07	1.3134E-06	4.8981E-06	3.2994E-06
1.1427E-06	9.3336E-07	5.2627E-06	3.9369E-06
1.2132E-06	4.6360E-07	5.6489E-06	3.0844E-06
1.1839E-06	1.2941E-07	5.2300E-06	3.3103E-06
9.6270E-07	-4.4726E-08	5.5932E-06	2.7669E-06
9.6565E-07	-1.8373E-07	4.7584E-06	2.3194E-06
9.0567E-07	-3.7666E-07	3.6978E-06	3.0079E-06
8.6272E-07	-6.9342E-07	4.6790E-06	4.1839E-06
6.0582E-07	-8.5147E-07	4.5054E-06	3.2190E-06
2.6569E-07	-1.0618E-06	5.0606E-06	4.6840E-06
-1.6598E-07	-9.1723E-07	5.6974E-06	2.3591E-06
-5.2530E-07	-7.3222E-07	3.8357E-06	3.6204E-06
-5.9284E-07	-2.9985E-07	5.1795E-06	3.1044E-06
-4.7788E-07	1.2871E-07	3.3937E-06	3.6322E-06
-1.3927E-07	3.6815E-07	4.8958E-06	4.2545E-06
2.3479E-07	2.8128E-07	3.8527E-06	4.1082E-06
4.4727E-07	-1.0899E-07	5.7084E-06	5.4248E-06
3.8957E-07	-4.6802E-07	6.2638E-06	2.6905E-06
4.8406E-08	-7.8099E-07	3.7282E-06	2.9972E-06
-3.8153E-07	-7.8954E-07	4.7999E-06	4.5721E-06
-7.5204E-07	-5.0452E-07	4.6464E-06	3.3840E-06
-8.5011E-07	-9.6818E-08	4.7813E-06	4.8020E-06
-7.5946E-07	3.8780E-07	5.2761E-06	2.9192E-06
-2.8479E-07	5.2072E-07	3.4862E-06	4.6004E-06
1.8155E-07	4.7154E-07	5.4730E-06	4.4616E-06
4.2817E-07	1.1652E-07	4.2843E-06	4.6808E-06
3.4031E-07	-2.4539E-07	6.0950E-06	4.7533E-06
5.9514E-08	-5.1067E-07	4.9381E-06	4.0898E-06
-3.3363E-07	-4.8469E-07	6.1531E-06	4.8202E-06
-5.2653E-07	-1.7514E-07	6.1369E-06	3.6106E-06
-5.6893E-07	1.0526E-07	6.0538E-06	2.9860E-06
-4.0384E-07	4.7133E-07	4.4789E-06	3.0644E-06
-1.2354E-07	5.1804E-07	5.6156E-06	3.9637E-06
1.8018E-07	4.2587E-07	4.6877E-06	2.4144E-06
3.8217E-07	7.1302E-08	3.7705E-06	4.4577E-06
3.2054E-07	-1.0182E-07	5.8924E-06	4.5750E-06
2.7748E-08	-1.6021E-07	5.3331E-06	2.4087E-06
-1.6861E-07	-1.3085E-07	2.8027E-06	3.9402E-06
-3.6762E-07	7.3451E-08	5.3691E-06	6.2882E-06
-2.4564E-07	4.3204E-07	6.9057E-06	3.6560E-06
-4.5610E-08	5.2984E-07	5.0832E-06	2.9196E-06
1.7456E-07	4.4475E-07	5.1849E-06	3.7024E-06
2.9937E-07	2.4328E-07	4.7783E-06	2.6591E-06
3.1567E-07	-7.0766E-09	3.5053E-06	4.2722E-06
1.7276E-07	-1.2366E-07	5.5892E-06	4.4762E-06
-4.0279E-08	-1.1246E-07	4.1885E-06	2.8842E-06
-1.2571E-07	-3.6759E-08	3.2175E-06	5.3922E-06
-1.5774E-07	2.4998E-07	6.1677E-06	5.9639E-06
5.5526E-08	4.2344E-07	5.8613E-06	3.3279E-06
3.0525E-07	3.5217E-07	4.6311E-06	4.8219E-06
5.4840E-07	1.5813E-07	6.0703E-06	4.4832E-06
5.8175E-07	-1.7620E-07	6.0096E-06	4.5282E-06
4.9717E-07	-4.0555E-07	6.6971E-06	2.5313E-06
1.4332E-07	-5.8256E-07	3.8160E-06	3.3440E-06
-1.9459E-07	-4.8253E-07	6.2778E-06	4.3399E-06
-4.4076E-07	-2.8757E-07	5.1753E-06	2.0956E-06
-3.6349E-07	3.9482E-08	3.6820E-06	2.6679E-06
-2.1235E-07	3.2540E-07	2.4481E-06	4.9429E-06
1.0175E-07	3.7178E-07	5.8899E-06	6.1133E-06
3.8854E-07	2.9985E-07	5.2429E-06	3.5069E-06
5.5405E-07	1.0706E-08	4.6974E-06	5.1704E-06
4.5963E-07	-2.7615E-07	6.1507E-06	5.1634E-06
2.9247E-07	-4.4004E-07	7.0817E-06	3.4799E-06
5.9354E-08	-4.9558E-07	4.8951E-06	2.6596E-06
-1.3510E-07	-4.5142E-07	5.6707E-06	3.6173E-06
-3.5378E-07	-4.1124E-07	3.8556E-06	2.1346E-06
-3.8764E-07	-2.3851E-07	3.5371E-06	5.4126E-06
-3.7238E-07	-1.7112E-07	5.6266E-06	4.6229E-06
-3.0585E-07	-8.7946E-08	5.2262E-06	4.5294E-06
-3.7054E-07	4.8488E-08	6.0170E-06	4.0471E-06
-3.2456E-07	1.0106E-07	5.3108E-06	3.4110E-06
-3.6537E-07	2.6062E-07	5.3893E-06	4.0299E-06
-2.5473E-07	3.3567E-07	5.9168E-06	2.6515E-06
-1.4135E-07	4.1463E-07	3.5392E-06	2.7625E-06
2.5023E-08	4.0574E-07	4.5998E-06	4.3084E-06
2.2236E-07	2.2116E-07	3.9251E-06	3.2492E-06
2.8129E-07	4.8129E-08	3.8485E-06	5.0590E-06
2.4024E-07	-1.3110E-07	4.6442E-06	4.8207E-06
1.3771E-07	-2.4321E-07	5.4246E-06	5.4396E-06
-1.0896E-07	-2.9338E-07	6.0954E-06	3.7716E-06
-2.0014E-07	-7.2675E-08	4.9125E-06	4.0689E-06
-2.8302E-07	9.0961E-08	6.1194E-06	4.0530E-06
-2.1795E-07	3.1737E-07	5.3472E-06	2.4056E-06
-8.2529E-08	3.6350E-07	4.0953E-06	3.1715E-06
1.4448E-07	3.1220E-07	4.0390E-06	2.9471E-06
2.0179E-07	1.8033E-07	2.4153E-06	4.4208E-06
3.1007E-07	2.7997E-08	4.4678E-06	5.7926E-06
2.3561E-07	-1.4107E-07	4.6527E-06	5.3673E-06
5.1363E-08	-2.3055E-07	6.7408E-06	5.0928E-06
-8.2214E-08	-1.7726E-07	5.3129E-06	2.4305E-06
-1.7160E-07	-8.5925E-08	4.0436E-06	3.4069E-06
-1.5842E-07	1.3471E-07	2.5946E-06	4.2360E-06
-7.6143E-08	1.4147E-07	4.8231E-06	6.8956E-06
4.4461E-08	1.7138E-07	5.8596E-06	4.1843E-06
1.4001E-07	1.5258E-07	4.9751E-06	4.8463E-06
1.1912E-07	8.2149E-08	4.9928E-06	4.4552E-06
1.2152E-07	3.0429E-08	6.1968E-06	5.4404E-06
1.3322E-07	-4.3956E-08	6.0242E-06	2.2474E-06
1.1442E-07	-1.2683E-08	3.6069E-06	3.9391E-06
5.9143E-08	-4.2402E-09	4.1407E-06	4.4672E-06
1.6379E-07	1.0306E-08	5.1373E-06	6.4225E-06
1.0560E-07	-5.9786E-08	7.2736E-06	3.6673E-06
2.2347E-07	-1.3544E-07	5.3650E-06	3.2587E-06
1.7975E-07	-2.0440E-07	4.8788E-06	2.0721E-06
1.2609E-07	-3.0315E-07	2.8674E-06	4.7907E-06
-4.7784E-10	-3.1140E-07	6.1255E-06	4.1891E-06
-1.7616E-07	-2.8457E-07	3.7342E-06	3.4805E-06
-3.0974E-07	-1.0882E-07	5.0238E-06	4.1906E-06
-2.4403E-07	4.9405E-08	3.7180E-06	4.1093E-06
-1.9810E-07	1.8016E-07	5.4413E-06	4.5051E-06
-6.1772E-08	1.5430E-07	4.1909E-06	3.5759E-06
5.1593E-08	1.4479E-07	4.9853E-06	3.5872E-06
9.0177E-08	7.0195E-08	2.3720E-06	3.6390E-06
8.0424E-08	-5.4305E-08	4.7964E-06	5.6487E-06
7.0624E-08	-2.1966E-07	5.2587E-06	3.7602E-06
-8.6764E-08	-1.9084E-07	3.1437E-06	4.5537E-06
-8.5219E-08	-1.0424E-07	3.9361E-06	5.3288E-06
-1.6940E-07	-3.7058E-08	5.3591E-06	5.2461E-06
-1.1488E-07	1.0123E-07	3.8969E-06	3.3930E-06
-1.2103E-07	1.7482E-07	3.8793E-06	6.2419E-06
-7.6529E-08	1.6616E-07	5.5282E-06	3.9172E-06
6.6901E-08	1.2486E-07	2.8642E-06	4.7013E-06
1.5340E-07	7.9554E-08	4.4154E-06	6.4253E-06
3.0904E-08	4.2628E-08	6.1262E-06	5.5346E-06
2.4376E-08	2.0115E-08	4.9555E-06	3.2975E-06
1.1479E-08	-7.9309E-08	3.8677E-06	5.6376E-06
-2.2649E-08	-6.3129E-08	5.7217E-06	4.0759E-06
-7.6299E-08	-4.6920E-08	2.8961E-06	4.9446E-06
-2.9808E-08	2.0917E-08	6.0267E-06	6.3314E-06
-4.6791E-08	6.9912E-08	5.3567E-06	3.3354E-06
-8.5363E-08	4.3507E-08	3.4139E-06	4.6624E-06
-6.2370E-08	1.4003E-07	4.8754E-06	6.6483E-06
-1.2003E-08	2.1613E-07	7.2729E-06	4.1321E-06
-4.6987E-09	1.9860E-07	3.8625E-06	2.7182E-06
6.3012E-08	1.2430E-07	4.1788E-06	4.9439E-06
1.0633E-07	1.0136E-07	4.0283E-06	4.4286E-06
1.8137E-07	5.3536E-08	5.0900E-06	5.1962E-06
1.3485E-07	-2.8867E-08	3.9543E-06	3.0330E-06
1.4693E-07	-2.3135E-08	2.5244E-06	6.0511E-06
1.0613E-07	-6.4748E-08	5.1913E-06	6.2306E-06
7.7612E-08	-6.6003E-08	5.3135E-06	5.3146E-06
2.3509E-08	-6.9316E-08	5.4772E-06	4.3395E-06
4.8320E-08	-8.1960E-08	4.0328E-06	4.2350E-06
-2.7248E-08	-2.6006E-08	4.2764E-06	5.6322E-06
4.0359E-08	-4.1781E-08	5.9776E-06	4.9565E-06
1.1273E-08	-9.2496E-08	4.2777E-06	2.5146E-06
2.1459E-08	-4.2980E-08	1.6645E-06	5.5296E-06
-2.0378E-08	-1.3670E-07	5.0010E-06	7.1735E-06
-2.6985E-08	-8.9356E-08	5.3067E-06	5.1947E-06
-4.2824E-08	-9.9785E-08	5.5051E-06	5.4113E-06
-5.9961E-08	-9.6875E-08	5.1810E-06	3.6923E-06
-7.7338E-08	-1.7130E-07	3.2262E-06	4.8187E-06
-1.1981E-07	-6.1717E-08	4.5520E-06	6.2966E-06
-1.0479E-07	-3.9259E-08	5.7774E-06	5.4975E-06
-9.9912E-08	6.0649E-09	5.7463E-06	4.0076E-06
-7.4265E-08	2.0477E-08	4.0336E-06	3.4447E-06
-1.2583E-07	7.1559E-08	3.0698E-06	4.7088E-06
-7.0578E-08	6.4156E-08	3.4010E-06	5.9345E-06
-5.3193E-08	8.3621E-08	4.5498E-06	6.1703E-06
-3.8170E-08	4.0297E-08	4.5566E-06	5.5755E-06
-5.4191E-08	3.8131E-08	4.5648E-06	6.0563E-06
-4.2907E-10	4.4488E-08	5.0765E-06	6.0967E-06
-2.6639E-08	-6.1675E-09	5.8087E-06	5.9237E-06
4.9793E-08	1.1464E-07	5.7544E-06	4.8293E-06
1.5633E-08	4.1001E-08	5.3754E-06	5.0077E-06
1.5929E-08	1.8913E-08	5.3202E-06	4.2788E-06
2.5380E-08	-1.2138E-08	4.5430E-06	4.9990E-06
-9.0141E-08	-1.0003E-08	5.4871E-06	4.5275E-06
1.3999E-09	4.6162E-08	3.9748E-06	4.3017E-06
2.2982E-09	4.2995E-08	4.4451E-06	5.4016E-06
4.0686E-08	3.4225E-08	4.4925E-06	5.4539E-06
2.4143E-08	-3.3066E-08	5.7145E-06	5.4921E-06
3.2878E-10	4.9860E-08	5.0817E-06	4.1882E-06
