jMRUI Data Textfile

Filename: Export_to_jmrui.txt

PointsInDataset: 2048
DatasetsInFile: 1
SamplingInterval: 0.250000
ZeroOrderPhase: 0E0
BeginTime: 0E0
TransmitterFrequency: 1.2326E8
MagneticField: 2.8936E0
TypeOfNucleus:  
NameOfPatient:  
DateOfExperiment:  
Spectrometer:  
AdditionalInfo: 
SignalNames:  


Signal and FFT
sig(real)	sig(imag)	fft(real)	fft(imag)
Signal 1 out of 1 in file
1.0385E-05	5.3844E-06	1.1303E-06	4.9731E-06
1.2040E-05	-1.3154E-06	4.2045E-06	6.2322E-06
9.3674E-06	-7.2679E-06	4.7606E-06	4.9196E-06
3.9966E-06	-1.0326E-05	4.7753E-06	4.5073E-06
-1.5774E-06	-1.0004E-05	4.2257E-06	4.2777E-06
-5.4871E-06	-6.7381E-06	4.6571E-06	4.8999E-06
-6.8706E-06	-2.2501E-06	4.9343E-06	3.7174E-06
-5.6707E-06	1.5637E-06	3.6736E-06	4.1456E-06
-2.8695E-06	3.5375E-06	4.6368E-06	4.8589E-06
2.1270E-07	3.6111E-06	4.8732E-06	3.7605E-06
2.3507E-06	2.0725E-06	3.7484E-06	3.7867E-06
2.9774E-06	-1.3866E-07	4.3772E-06	4.7828E-06
2.2688E-06	-1.9629E-06	4.6118E-06	3.3508E-06
8.2220E-07	-2.7903E-06	3.2532E-06	4.1944E-06
-6.4883E-07	-2.8389E-06	4.2633E-06	4.4587E-06
-1.6320E-06	-2.2029E-06	3.9629E-06	4.5097E-06
-2.0213E-06	-1.2239E-06	4.9582E-06	3.7394E-06
-1.9280E-06	-5.7150E-07	2.4911E-06	2.9832E-06
-1.7374E-06	-1.8108E-07	2.4768E-06	6.2796E-06
-1.7236E-06	-3.5752E-08	5.8497E-06	5.9934E-06
-1.7869E-06	2.8595E-07	5.2280E-06	2.4853E-06
-1.7369E-06	7.5272E-07	1.9047E-06	4.2141E-06
-1.5780E-06	1.3238E-06	4.7113E-06	6.1887E-06
-9.6318E-07	1.7295E-06	4.7825E-06	3.6765E-06
-1.2118E-07	1.8165E-06	3.6173E-06	4.5322E-06
6.0772E-07	1.4985E-06	4.1299E-06	4.9233E-06
1.0379E-06	7.5342E-07	4.9494E-06	4.9195E-06
8.6788E-07	-8.3604E-08	4.9498E-06	3.4270E-06
2.4730E-07	-5.4222E-07	3.4687E-06	3.5306E-06
-5.4768E-07	-6.5298E-07	3.4831E-06	4.4305E-06
-1.1886E-06	-2.1387E-07	3.7582E-06	4.3862E-06
-1.4808E-06	5.8862E-07	3.4626E-06	4.4465E-06
-1.0412E-06	1.4869E-06	3.2941E-06	4.8055E-06
-3.1870E-07	1.9238E-06	3.3929E-06	5.7921E-06
4.8638E-07	1.9480E-06	5.0272E-06	5.8847E-06
1.0139E-06	1.5528E-06	5.1100E-06	4.8126E-06
1.3257E-06	9.5924E-07	5.6924E-06	4.5146E-06
1.3877E-06	4.6303E-07	4.8238E-06	2.7229E-06
1.2959E-06	1.7007E-07	3.4779E-06	3.8253E-06
1.2163E-06	5.1837E-08	3.8406E-06	3.7789E-06
1.2647E-06	-1.2329E-07	3.2189E-06	4.6581E-06
1.2986E-06	-3.6567E-07	4.7245E-06	4.5092E-06
1.2148E-06	-8.4235E-07	3.6970E-06	3.3149E-06
9.4408E-07	-1.2345E-06	2.9948E-06	4.3172E-06
3.0933E-07	-1.4946E-06	3.7486E-06	4.8207E-06
-2.4876E-07	-1.3967E-06	3.7637E-06	3.5515E-06
-7.4885E-07	-1.0187E-06	1.7988E-06	4.6460E-06
-9.0035E-07	-3.7326E-07	3.4971E-06	6.3302E-06
-6.1416E-07	2.3180E-07	4.4051E-06	5.6191E-06
-1.6219E-07	4.7258E-07	5.1901E-06	4.6793E-06
4.8314E-07	2.5548E-07	4.0029E-06	3.7845E-06
7.8748E-07	-2.2826E-07	3.7629E-06	3.7092E-06
6.6093E-07	-7.8230E-07	1.9793E-06	5.0879E-06
1.5910E-07	-1.2261E-06	4.3328E-06	4.6446E-06
-5.6665E-07	-1.2197E-06	3.4908E-06	2.7152E-06
-1.1620E-06	-7.7117E-07	1.5127E-06	6.2214E-06
-1.3402E-06	-8.4933E-08	4.1319E-06	6.2210E-06
-1.0294E-06	6.4220E-07	4.6841E-06	5.8175E-06
-5.1448E-07	1.0511E-06	4.0500E-06	4.4149E-06
1.9635E-07	9.4346E-07	4.6030E-06	6.1182E-06
7.2537E-07	4.1077E-07	4.4860E-06	2.9562E-06
6.5962E-07	-1.1046E-07	2.3632E-06	6.4855E-06
3.4324E-07	-5.9354E-07	6.1407E-06	5.0589E-06
-9.7982E-08	-7.1134E-07	4.0627E-06	4.4733E-06
-4.7495E-07	-4.6322E-07	5.2527E-06	3.2234E-06
-7.0507E-07	6.8669E-08	1.7074E-06	3.8521E-06
-5.7471E-07	3.7334E-07	4.2011E-06	5.4425E-06
-2.2479E-07	5.0566E-07	2.5670E-06	4.0727E-06
6.6352E-08	4.3607E-07	3.4602E-06	6.4398E-06
2.9402E-07	1.1773E-07	4.6865E-06	4.8532E-06
1.0892E-07	-7.8465E-08	3.4426E-06	4.4028E-06
-1.7777E-07	-1.9592E-07	3.4150E-06	5.5937E-06
-4.4375E-07	-1.5473E-08	4.1452E-06	4.9914E-06
-4.8526E-07	2.6615E-07	3.7422E-06	5.5156E-06
-3.8143E-07	6.1297E-07	4.5066E-06	4.6531E-06
1.2439E-08	6.9723E-07	3.4025E-06	5.4876E-06
3.7269E-07	6.4010E-07	5.3842E-06	4.9847E-06
5.7796E-07	2.6314E-07	4.0708E-06	4.0127E-06
6.1617E-07	-7.0824E-08	4.3709E-06	3.4150E-06
3.6891E-07	-3.3406E-07	1.4845E-06	3.6542E-06
-1.4660E-08	-3.2215E-07	2.6608E-06	6.2738E-06
-3.2692E-07	-4.9859E-08	3.5226E-06	5.9139E-06
-2.7927E-07	2.8470E-07	4.7202E-06	5.5912E-06
-5.2093E-08	5.1295E-07	3.9412E-06	4.2256E-06
3.0148E-07	5.6567E-07	3.2590E-06	4.5369E-06
6.9710E-07	3.2142E-07	2.4504E-06	5.3937E-06
7.3059E-07	-1.7434E-07	3.7962E-06	6.3340E-06
6.2398E-07	-5.3494E-07	4.1020E-06	5.6698E-06
2.1503E-07	-6.6811E-07	4.5487E-06	5.4640E-06
-2.7619E-07	-6.2127E-07	4.2293E-06	5.1583E-06
-5.2298E-07	-3.2214E-07	4.7948E-06	4.8827E-06
-5.2523E-07	1.1922E-07	4.0374E-06	4.3519E-06
-2.4744E-07	4.7886E-07	4.2156E-06	4.4499E-06
1.6498E-07	5.1230E-07	3.7044E-06	4.0840E-06
5.2050E-07	4.0141E-07	3.2437E-06	3.7641E-06
7.2204E-07	1.2400E-07	2.0020E-06	5.1611E-06
6.4757E-07	-2.9212E-07	4.2011E-06	5.4622E-06
4.0070E-07	-5.4276E-07	2.7563E-06	3.9332E-06
4.7713E-08	-6.9628E-07	2.3472E-06	5.5820E-06
-2.1234E-07	-6.2484E-07	3.0179E-06	6.1343E-06
-4.2743E-07	-4.2844E-07	4.2236E-06	5.5910E-06
-4.8134E-07	-3.0928E-07	3.0875E-06	4.9934E-06
-3.6423E-07	-9.1052E-08	3.7334E-06	5.7436E-06
-3.8821E-07	-7.1922E-09	3.3185E-06	5.1812E-06
-3.7777E-07	1.0764E-07	3.9792E-06	5.9086E-06
-3.7841E-07	1.5423E-07	4.2331E-06	4.7059E-06
-4.2515E-07	1.6487E-07	3.5509E-06	4.4334E-06
-3.7368E-07	3.2379E-07	3.0052E-06	4.4072E-06
-1.6499E-07	4.8956E-07	2.1198E-06	4.5580E-06
1.0015E-07	4.1535E-07	2.0352E-06	6.4068E-06
2.3688E-07	2.6744E-07	3.4365E-06	5.5871E-06
3.3842E-07	1.0858E-07	2.1264E-06	6.5810E-06
3.2137E-07	-1.2172E-07	4.7790E-06	6.3425E-06
7.1227E-08	-2.7578E-07	2.9296E-06	5.0206E-06
-1.3987E-07	-2.8374E-07	3.6337E-06	5.8177E-06
-3.5149E-07	-1.5529E-07	2.3678E-06	5.7137E-06
-4.0727E-07	7.7332E-08	4.0100E-06	6.4231E-06
-3.2857E-07	3.3746E-07	2.4117E-06	5.6887E-06
-3.5316E-08	5.2143E-07	4.4477E-06	7.1481E-06
2.9225E-07	3.8503E-07	3.0462E-06	4.7436E-06
3.9792E-07	2.1616E-07	2.9258E-06	7.5706E-06
4.6661E-07	-1.1792E-07	4.2779E-06	6.9802E-06
3.0278E-07	-3.2607E-07	5.8067E-06	6.7339E-06
3.0895E-08	-3.3825E-07	4.5054E-06	4.0126E-06
-2.1248E-07	-2.8412E-07	3.5765E-06	5.9941E-06
-3.2223E-07	-1.2871E-07	4.1522E-06	5.0159E-06
-2.8172E-07	1.5389E-07	3.5286E-06	5.8074E-06
-1.2073E-07	2.7961E-07	4.0163E-06	5.5022E-06
1.8204E-08	3.0183E-07	3.8054E-06	5.3461E-06
1.8176E-07	2.6860E-07	2.9677E-06	5.9163E-06
2.1924E-07	7.5824E-08	5.0912E-06	6.5386E-06
1.4246E-07	-4.5965E-08	3.7762E-06	4.0698E-06
7.4776E-08	-1.1260E-07	3.4037E-06	6.5099E-06
2.2095E-08	-8.7644E-08	4.6932E-06	5.0127E-06
5.5582E-09	-1.5013E-08	3.6014E-06	4.7954E-06
6.0444E-08	1.0640E-07	2.6726E-06	5.1939E-06
2.3126E-07	1.3923E-08	3.9369E-06	6.4412E-06
3.0542E-07	-1.1670E-07	3.4278E-06	4.7621E-06
2.6637E-07	-2.4542E-07	3.6577E-06	6.5660E-06
1.2534E-07	-3.5364E-07	3.8171E-06	4.4836E-06
-8.1942E-08	-3.5820E-07	2.7394E-06	6.8363E-06
-2.0656E-07	-3.2024E-07	5.5018E-06	5.6390E-06
-3.8362E-07	-7.7268E-08	3.6235E-06	3.5559E-06
-3.7054E-07	6.5429E-08	1.2078E-06	5.3733E-06
-2.8771E-07	1.9811E-07	4.2701E-06	7.6526E-06
-6.8976E-08	2.0949E-07	3.8079E-06	3.6572E-06
7.1693E-08	1.4549E-07	1.8767E-06	7.2246E-06
1.2627E-07	2.7554E-09	5.2832E-06	5.8393E-06
1.0977E-07	-1.1820E-07	3.2650E-06	4.6836E-06
6.3038E-08	-2.0288E-07	2.4196E-06	5.0129E-06
-1.0053E-07	-1.8821E-07	2.5215E-06	7.4932E-06
-1.7402E-07	-9.5368E-08	4.9597E-06	5.6735E-06
-1.8577E-07	4.7097E-08	3.0274E-06	5.3597E-06
-1.7139E-07	2.1889E-07	2.9641E-06	4.9669E-06
-4.3975E-08	1.6170E-07	1.3719E-06	7.3597E-06
-1.2657E-08	2.2584E-07	5.0507E-06	7.7327E-06
1.1964E-07	1.6732E-07	4.2125E-06	5.7446E-06
9.9971E-08	8.6257E-08	4.4718E-06	5.9558E-06
1.2939E-07	-3.3999E-08	3.8249E-06	5.3567E-06
1.0607E-07	-5.9519E-08	3.6289E-06	5.4899E-06
9.7937E-08	-1.2989E-07	3.2686E-06	6.3575E-06
-2.1666E-08	-6.1553E-08	4.8009E-06	5.5481E-06
-8.2140E-09	-9.0340E-08	2.3617E-06	5.2743E-06
-1.0429E-07	-8.1348E-08	4.4850E-06	7.7341E-06
-6.3212E-08	2.4662E-08	5.6212E-06	4.5635E-06
-1.7015E-07	5.1671E-08	3.5914E-06	4.3216E-06
-6.2889E-08	9.9474E-08	3.1767E-06	4.3662E-06
-7.4308E-08	2.2918E-07	1.9216E-06	5.3755E-06
-1.5154E-08	2.3137E-07	3.4053E-06	6.7491E-06
3.7924E-08	2.3016E-07	4.1664E-06	5.1648E-06
1.1584E-07	8.4583E-08	3.0881E-06	4.7630E-06
2.1192E-07	5.7231E-08	2.1766E-06	5.0621E-06
1.9476E-07	-5.9080E-08	2.2517E-06	6.7283E-06
1.4497E-07	-1.4135E-07	3.8729E-06	6.2813E-06
1.1816E-07	-9.3377E-08	3.3798E-06	5.2384E-06
4.7954E-08	-1.3815E-07	2.1780E-06	5.1682E-06
7.6352E-10	-7.9464E-08	1.8204E-06	7.4003E-06
4.3737E-08	-3.2330E-08	4.5911E-06	7.2975E-06
3.2196E-08	-1.1929E-07	3.9817E-06	5.2403E-06
1.8188E-08	-5.9598E-08	3.0729E-06	5.9280E-06
4.5992E-08	-1.0897E-07	3.9087E-06	6.0719E-06
6.8855E-08	-1.3484E-07	3.3990E-06	4.8742E-06
1.2765E-08	-9.0535E-08	2.4766E-06	6.2297E-06
-1.6819E-08	-1.0977E-07	4.4210E-06	5.8954E-06
-5.4317E-08	-2.1357E-08	2.8437E-06	3.9060E-06
-8.7457E-08	-6.7693E-08	9.7721E-07	5.8556E-06
-6.6309E-08	-1.2214E-07	2.7766E-06	7.5370E-06
-8.2291E-08	-6.0550E-09	3.8067E-06	6.0072E-06
-1.1624E-07	-6.8980E-08	3.0630E-06	5.8788E-06
-2.5581E-08	1.6235E-08	3.1887E-06	5.3054E-06
-1.6616E-07	-1.7017E-09	1.8574E-06	5.6215E-06
-1.3750E-07	6.5800E-10	2.2789E-06	6.4301E-06
-1.4025E-07	1.9121E-08	1.9975E-06	6.5496E-06
-1.3337E-07	2.5970E-08	2.3341E-06	7.6402E-06
-8.1117E-08	6.2387E-08	4.1153E-06	7.8183E-06
-2.4298E-08	1.4967E-07	4.5771E-06	5.3541E-06
-9.9597E-09	2.6274E-08	2.2163E-06	5.3163E-06
4.9667E-08	9.0125E-08	2.2577E-06	6.5252E-06
6.4305E-08	-1.4796E-08	2.5090E-06	7.4354E-06
2.3241E-08	-1.1158E-08	4.3078E-06	6.9248E-06
-2.8490E-08	2.7628E-08	3.1174E-06	5.3926E-06
-1.9946E-08	-2.2334E-08	2.2915E-06	6.5095E-06
-2.3469E-08	2.1591E-08	2.9040E-06	7.2748E-06
-1.9443E-08	9.3632E-08	3.7522E-06	6.8472E-06
1.8194E-08	8.1301E-08	3.7804E-06	6.6701E-06
6.2697E-08	8.7214E-08	4.2471E-06	5.1716E-06
9.9960E-08	-1.4374E-09	1.4654E-06	5.4209E-06
6.6750E-08	1.9373E-08	3.0969E-06	7.4025E-06
