jMRUI Data Textfile

Filename: Export_to_jmrui.txt

PointsInDataset: 2048
DatasetsInFile: 1
SamplingInterval: 0.250000
ZeroOrderPhase: 0E0
BeginTime: 0E0
TransmitterFrequency: 1.2326E8
MagneticField: 2.8936E0
TypeOfNucleus:  
NameOfPatient:  
DateOfExperiment:  
Spectrometer:  
AdditionalInfo: 
SignalNames:  


Signal and FFT
sig(real)	sig(imag)	fft(real)	fft(imag)
Signal 1 out of 1 in file
4.3530E-06	1.8635E-06	1.0788E-06	8.3544E-07
4.9807E-06	-5.6825E-07	1.3744E-06	1.3203E-06
4.0453E-06	-2.8803E-06	1.5470E-06	2.3993E-06
1.9159E-06	-4.1748E-06	2.3924E-06	1.0624E-06
-8.6359E-08	-4.0960E-06	1.1135E-06	1.7022E-06
-1.7739E-06	-3.0222E-06	2.0548E-06	1.9012E-06
-2.4054E-06	-1.3378E-06	2.4684E-06	1.6558E-06
-2.0166E-06	1.2049E-07	1.8115E-06	1.7965E-07
-1.0467E-06	8.8433E-07	8.3830E-07	1.9121E-06
1.3108E-07	8.0094E-07	2.2659E-06	1.3467E-06
6.9367E-07	2.9213E-07	1.8312E-06	7.6600E-07
8.3901E-07	-4.3904E-07	2.2281E-07	-2.5972E-07
4.5360E-07	-9.8358E-07	-6.1574E-07	3.1861E-06
-9.7442E-08	-1.1867E-06	2.1824E-06	2.0357E-06
-6.2650E-07	-1.0182E-06	1.6920E-07	1.9972E-06
-7.9085E-07	-6.3388E-07	1.3595E-06	2.9955E-06
-8.3656E-07	-2.5240E-07	1.6738E-06	2.8894E-06
-5.4237E-07	-1.4607E-07	2.2966E-06	2.4653E-06
-5.3061E-07	-2.4970E-07	2.8527E-06	1.6862E-06
-5.3095E-07	-3.1739E-07	1.8918E-06	1.2812E-06
-7.6952E-07	-2.9038E-07	-6.9099E-07	2.6442E-06
-9.9973E-07	-5.2472E-08	2.8269E-06	3.9573E-06
-1.1257E-06	2.1886E-07	2.1797E-06	1.7021E-06
-9.0762E-07	6.3550E-07	1.8382E-06	3.0021E-06
-4.8747E-07	9.5217E-07	3.4696E-06	2.4774E-06
-8.1387E-08	8.0184E-07	2.3030E-06	6.8783E-07
2.5135E-07	5.0857E-07	1.6659E-06	2.4103E-06
3.6640E-07	2.3263E-07	2.7154E-06	1.5050E-06
1.9459E-07	-3.7151E-08	2.2373E-06	1.5126E-06
-1.6026E-07	-1.5532E-07	1.4796E-06	2.9320E-07
-4.8177E-07	8.2517E-09	4.1064E-07	2.6946E-06
-6.3100E-07	3.7834E-07	2.0942E-06	1.8281E-06
-4.9553E-07	7.5451E-07	7.9919E-07	2.7910E-06
-2.3886E-07	1.0712E-06	2.3309E-06	2.6211E-06
1.4747E-07	1.0006E-06	2.0683E-06	3.2376E-06
4.9085E-07	8.1841E-07	3.6567E-06	1.7295E-06
7.3213E-07	5.1540E-07	2.1165E-06	1.5933E-06
7.3304E-07	2.5062E-07	2.1626E-06	6.2909E-07
5.4869E-07	1.1669E-07	3.9700E-07	3.2014E-06
4.8079E-07	-2.2893E-08	4.4287E-06	2.0695E-06
4.5264E-07	6.2073E-08	7.4016E-07	2.9793E-07
5.4509E-07	-7.0321E-08	1.5688E-06	2.8425E-06
5.8307E-07	-2.1714E-07	1.7436E-06	2.3813E-06
5.8674E-07	-3.6730E-07	2.5492E-06	2.6340E-06
4.1493E-07	-5.0922E-07	2.5729E-06	2.3690E-06
2.2569E-07	-5.3132E-07	2.9250E-06	1.4836E-06
3.7937E-08	-5.6932E-07	2.0407E-06	2.4813E-06
-2.1913E-07	-3.2956E-07	4.0807E-06	1.2251E-06
-1.9395E-07	-1.1376E-07	1.8833E-06	7.1792E-07
-7.6065E-08	-3.7653E-09	2.9271E-06	1.9239E-07
7.6516E-08	-4.5520E-08	-2.9469E-07	3.6636E-07
1.7788E-07	-1.1531E-07	1.3028E-06	2.0755E-06
1.4803E-07	-2.9398E-07	-1.1188E-07	2.2807E-06
-4.0743E-08	-3.7060E-07	2.7822E-06	3.3487E-06
-2.9765E-07	-4.6623E-07	9.6674E-07	1.2307E-06
-4.4006E-07	-1.6559E-07	1.8255E-06	3.6422E-06
-4.4611E-07	-8.0543E-09	2.1962E-06	2.1723E-06
-2.8492E-07	2.3721E-07	2.5412E-06	2.6691E-06
3.0036E-08	2.5945E-07	2.0930E-06	1.6717E-06
1.9501E-07	1.5004E-07	1.7006E-06	1.8843E-06
2.8740E-07	-5.7819E-08	2.9674E-07	3.4763E-06
2.3463E-07	-3.5358E-07	4.2755E-06	4.7167E-06
1.1520E-08	-4.5495E-07	3.2800E-06	1.2659E-06
-3.4018E-07	-4.2009E-07	3.4007E-06	3.0747E-06
-4.7044E-07	-1.6569E-07	3.5889E-06	1.1518E-06
-5.0288E-07	8.5654E-08	3.6729E-06	1.7984E-06
-4.6982E-07	3.0199E-07	2.8467E-06	-4.6630E-07
-1.9985E-07	3.0444E-07	9.8223E-07	1.4164E-06
-2.5833E-08	2.5416E-07	1.8531E-06	2.4231E-06
1.5356E-07	1.2719E-07	3.5312E-06	2.1076E-06
1.1700E-07	3.1380E-09	1.4272E-06	3.9245E-07
2.3438E-08	-3.8589E-08	2.2850E-06	4.0660E-06
-7.8986E-08	-3.5770E-08	4.4539E-06	5.7868E-07
-1.6539E-07	1.4531E-07	1.5441E-06	1.3527E-06
-1.4768E-07	2.5225E-07	3.2937E-06	1.8106E-06
1.8227E-08	2.5414E-07	3.0362E-06	1.0296E-06
1.2768E-07	2.5088E-07	2.5781E-06	5.7899E-08
1.5225E-07	1.5803E-07	1.2809E-06	1.4439E-06
1.0434E-07	7.6268E-09	3.0334E-06	1.1943E-06
1.5367E-08	-3.8384E-08	1.3637E-06	3.5897E-07
-1.0991E-07	2.5101E-08	1.2790E-06	2.0028E-06
-8.0882E-08	1.4671E-07	2.5466E-06	2.5248E-06
-1.0657E-07	3.3614E-07	3.7355E-06	9.0678E-07
8.5342E-08	3.6614E-07	1.8308E-06	1.1878E-07
3.7961E-07	3.3099E-07	2.3270E-06	1.1828E-06
4.5891E-07	1.1946E-07	2.0260E-06	-2.7682E-07
4.7638E-07	-9.6149E-08	6.5460E-07	4.7167E-07
3.6894E-07	-2.6706E-07	6.8663E-07	9.2913E-07
9.9069E-08	-4.2005E-07	1.4949E-08	1.6811E-06
-9.6386E-08	-3.2739E-07	8.6165E-07	3.2122E-06
-1.6234E-07	-1.3905E-07	2.6332E-06	2.4736E-06
-2.4938E-07	4.9469E-09	1.5196E-06	1.2651E-06
-1.0611E-07	2.0871E-07	1.2979E-06	2.9220E-06
3.8072E-08	2.2045E-07	2.9225E-06	2.7305E-06
2.7189E-07	1.5002E-07	3.4432E-06	1.5261E-06
3.4594E-07	-5.5843E-08	2.1922E-06	1.3170E-07
4.0368E-07	-2.3509E-07	1.3002E-06	1.8075E-06
2.2142E-07	-3.5189E-07	2.6383E-06	9.7054E-07
-4.5560E-08	-3.3086E-07	8.7506E-07	1.0000E-06
-1.2598E-07	-3.3089E-07	1.9231E-06	1.6894E-06
-2.4189E-07	-2.5997E-07	9.4230E-07	1.0252E-06
-2.7217E-07	-1.7983E-07	1.2122E-06	2.1996E-06
-2.6936E-07	-3.9872E-08	1.0309E-06	1.7183E-06
-3.0248E-07	-4.6884E-08	7.7658E-07	3.3916E-06
-2.3552E-07	4.8930E-08	3.4271E-06	3.8840E-06
-1.8413E-07	6.3502E-09	4.1563E-06	5.3076E-07
-1.9797E-07	1.3856E-07	6.9487E-07	6.1946E-07
-1.6378E-07	1.6389E-07	2.0373E-06	3.0314E-06
-6.6995E-08	2.0535E-07	3.0595E-06	1.7052E-06
-2.4274E-08	1.7923E-07	2.9167E-06	7.9923E-07
1.0367E-07	1.6776E-07	9.7801E-07	7.6178E-07
1.4565E-07	2.1216E-08	2.7261E-06	2.7474E-06
3.8581E-08	-1.1006E-07	2.5677E-06	-7.5193E-07
-4.4076E-09	-2.3124E-07	-3.4504E-07	2.1518E-06
-9.1901E-08	-5.8234E-08	3.4896E-06	2.7022E-06
-1.9355E-07	-8.1870E-08	2.4851E-06	1.1560E-07
-2.1258E-07	8.8827E-08	1.6446E-06	6.0222E-07
-1.6979E-07	2.0491E-07	7.6174E-07	6.9729E-07
-4.0406E-08	1.8178E-07	1.1303E-06	2.0745E-06
9.2205E-08	1.5627E-07	1.8649E-06	1.2726E-06
1.0780E-07	9.4239E-08	1.1447E-06	1.3948E-06
2.1433E-07	8.8942E-10	1.6372E-06	1.4732E-06
2.2118E-07	-8.3260E-08	1.0269E-06	1.0291E-06
5.3263E-08	-7.7759E-08	7.2773E-07	1.6927E-06
-3.7865E-08	-1.5122E-07	5.7678E-07	1.8445E-06
-4.2394E-08	-3.6493E-08	5.5603E-07	3.1303E-06
-8.7810E-08	2.7409E-08	2.4150E-06	3.2131E-06
-6.5242E-08	1.2030E-07	2.2287E-06	1.7406E-06
1.4316E-09	1.4310E-07	1.7426E-06	2.4804E-06
6.5983E-08	8.9888E-08	2.8282E-06	2.0320E-06
1.1231E-07	9.0654E-08	1.9497E-06	1.4131E-06
1.1676E-07	-5.5075E-09	2.6028E-06	2.0202E-06
1.5854E-07	5.6095E-08	2.3394E-06	2.7624E-07
9.4595E-08	-8.9793E-10	8.6596E-07	1.3441E-06
1.3400E-07	-4.8452E-08	1.7215E-06	1.2506E-06
1.5627E-07	-6.1342E-08	2.8776E-07	1.6807E-06
1.8294E-07	-4.2469E-08	1.6658E-06	3.0056E-06
2.0935E-07	-1.5337E-07	2.0494E-06	2.4142E-06
9.3780E-08	-2.1179E-07	3.4057E-06	2.3537E-06
2.5921E-08	-2.6989E-07	2.8742E-06	-8.2977E-08
-6.0588E-08	-1.9631E-07	1.1920E-06	6.9107E-07
-1.1172E-07	-1.5945E-07	1.6808E-06	7.6756E-07
-1.8346E-07	-2.2394E-08	5.0402E-07	3.6215E-07
-1.6219E-07	8.4942E-08	-1.1545E-07	2.2523E-06
-8.4765E-08	1.4217E-07	1.9530E-06	2.6380E-06
-5.9659E-08	1.1761E-07	1.8401E-06	1.1441E-06
-1.4033E-09	6.0875E-08	1.0430E-06	9.2159E-07
8.1209E-08	1.0384E-07	-3.4687E-08	2.1196E-06
6.5920E-08	9.0062E-09	2.2809E-06	2.8758E-06
1.6941E-08	-7.9106E-08	1.7422E-06	6.3236E-07
-7.1197E-08	-5.1630E-08	7.9941E-07	9.0971E-07
-5.7287E-08	3.4070E-08	-1.0841E-06	1.9626E-06
-1.4761E-07	7.7231E-08	2.2978E-06	4.1727E-06
-1.2165E-07	8.8267E-08	1.7354E-06	2.4656E-06
-3.2297E-09	1.0860E-07	-2.6778E-07	1.5038E-06
3.3087E-08	1.4700E-07	9.2194E-08	2.4264E-06
1.7743E-09	1.1540E-07	1.3067E-06	4.8912E-06
7.6863E-08	4.3347E-08	3.5580E-06	1.1463E-06
6.0017E-08	6.9931E-08	-7.5681E-08	2.1746E-06
1.8090E-08	-3.9181E-08	2.2785E-06	2.6248E-06
1.4876E-08	6.6351E-10	9.9230E-07	2.3470E-06
-5.0875E-09	-3.0647E-08	2.0115E-06	2.0633E-06
-2.2370E-08	-8.6307E-08	3.8967E-07	2.8646E-06
-7.9091E-08	-2.5946E-08	2.8364E-06	3.0098E-06
-5.9046E-08	-5.2440E-09	1.1683E-06	1.9860E-06
-1.1168E-07	4.3866E-08	2.2529E-06	2.9859E-06
-1.1566E-07	1.0963E-07	1.5892E-06	2.4045E-06
-1.0908E-08	1.1118E-07	2.9915E-06	3.0334E-06
3.8585E-08	1.6243E-07	2.4387E-06	1.1935E-06
4.8554E-08	1.8331E-07	1.7018E-06	2.0504E-06
2.1871E-07	9.5953E-08	2.1585E-06	2.1334E-06
1.6560E-07	7.3527E-08	2.2991E-06	1.4894E-06
2.0102E-07	-3.3593E-08	1.1954E-06	1.4734E-06
9.7020E-08	-5.0440E-08	1.0380E-06	2.4418E-06
9.2065E-08	-8.0554E-08	1.8959E-06	3.7235E-06
3.4206E-08	-1.3394E-07	4.1096E-06	2.2813E-06
4.1037E-08	-9.7838E-08	2.5012E-06	7.8464E-07
2.7795E-08	-1.1740E-07	2.5065E-06	1.1159E-06
-3.4468E-08	-7.4435E-08	1.3355E-06	6.4213E-07
-2.4711E-09	-1.2844E-07	1.3484E-06	1.9200E-06
3.6996E-08	-5.6627E-08	1.8285E-06	1.7801E-06
-3.7628E-09	-9.6267E-08	2.0652E-06	1.6815E-06
-3.4494E-08	-1.4374E-07	2.0380E-06	1.3131E-06
-1.6990E-08	-1.3241E-07	1.7319E-06	9.8069E-07
-9.9650E-08	-8.6768E-08	1.3115E-06	1.4999E-06
-9.5362E-08	-8.2929E-08	2.0589E-06	1.1859E-06
-1.6462E-07	-9.3883E-08	1.0348E-06	5.0335E-07
-7.1408E-08	-4.0603E-08	2.8483E-07	1.4007E-06
-4.0105E-08	-2.1174E-08	7.6988E-07	2.5005E-06
-1.1137E-07	-1.4064E-08	1.9361E-06	2.2474E-06
-5.7715E-08	4.9352E-08	2.2750E-06	1.1689E-06
-3.2858E-08	1.0808E-07	6.2059E-07	1.2709E-07
-4.3269E-08	6.6780E-08	1.9036E-07	2.3256E-06
-5.2094E-08	5.6816E-08	1.0228E-06	1.1059E-06
4.0318E-08	7.0494E-08	-3.4705E-07	2.9672E-06
-7.4686E-10	3.6243E-08	2.2165E-06	2.3073E-06
-2.9311E-08	5.0132E-08	2.3205E-07	2.0171E-06
-1.3365E-08	-3.0369E-08	1.7383E-06	2.8075E-06
5.0929E-09	-4.5589E-08	1.2436E-06	2.6131E-06
-4.6185E-09	2.3550E-08	3.2333E-06	2.0658E-06
-6.9487E-08	9.1792E-08	1.1081E-06	5.2561E-08
8.5953E-09	7.0663E-08	2.1624E-07	1.7480E-06
-3.8294E-08	3.7756E-08	8.2689E-07	2.6985E-06
4.0386E-08	-2.6832E-10	2.0624E-06	1.3538E-06
-3.1065E-08	1.3767E-08	-6.2785E-07	1.5880E-06
-2.8413E-08	6.0037E-08	1.4554E-06	3.6530E-06
-4.5981E-08	3.4336E-08	1.8946E-06	1.8585E-06
