jMRUI Data Textfile

Filename: Export_to_jmrui.txt

PointsInDataset: 2048
DatasetsInFile: 1
SamplingInterval: 0.250000
ZeroOrderPhase: 0E0
BeginTime: 0E0
TransmitterFrequency: 1.2326E8
MagneticField: 2.8936E0
TypeOfNucleus:  
NameOfPatient:  
DateOfExperiment:  
Spectrometer:  
AdditionalInfo: 
SignalNames:  


Signal and FFT
sig(real)	sig(imag)	fft(real)	fft(imag)
Signal 1 out of 1 in file
7.7204E-06	1.1647E-06	1.2060E-06	1.5044E-06
7.5360E-06	-2.4055E-06	1.8480E-06	3.1457E-06
5.5638E-06	-5.3288E-06	3.2934E-06	2.3105E-06
2.4875E-06	-6.6837E-06	2.0883E-06	2.4249E-06
-6.8339E-07	-6.3145E-06	3.2393E-06	3.3652E-06
-2.9234E-06	-4.5456E-06	3.4173E-06	2.9737E-06
-3.8246E-06	-2.0579E-06	4.4197E-06	3.1119E-06
-3.1826E-06	9.5753E-08	4.1225E-06	1.8334E-06
-1.6437E-06	1.3992E-06	3.6028E-06	2.6920E-06
-6.5595E-08	1.3582E-06	4.5571E-06	2.6487E-06
9.3925E-07	5.5511E-07	4.4223E-06	2.1149E-06
1.2265E-06	-5.6271E-07	4.5647E-06	2.5370E-06
8.1129E-07	-1.4175E-06	5.5891E-06	1.8668E-06
-6.9415E-08	-1.7694E-06	4.8770E-06	4.9428E-07
-7.6636E-07	-1.6726E-06	3.5933E-06	9.3407E-07
-1.2488E-06	-1.0549E-06	3.9919E-06	2.0463E-06
-1.2622E-06	-6.8573E-07	4.9396E-06	1.3589E-06
-1.1672E-06	-2.9815E-07	4.1355E-06	8.9259E-07
-1.0527E-06	-1.7324E-07	4.5723E-06	1.3825E-06
-1.0231E-06	-2.0970E-07	4.6136E-06	2.4912E-08
-1.1620E-06	-8.9870E-08	2.9154E-06	4.0563E-07
-1.3084E-06	1.6345E-07	3.8408E-06	1.5322E-06
-1.2251E-06	5.8523E-07	3.7969E-06	2.0230E-07
-9.9366E-07	9.7169E-07	2.8314E-06	1.1257E-06
-4.8672E-07	1.2126E-06	3.6947E-06	1.0435E-06
9.4086E-09	1.1435E-06	2.8378E-06	9.3046E-07
4.1102E-07	6.3267E-07	3.5478E-06	1.6588E-06
3.8491E-07	1.9887E-07	3.4741E-06	3.1569E-07
9.1286E-08	-1.4257E-07	2.0455E-06	1.4392E-06
-2.6896E-07	-1.6496E-07	3.9954E-06	1.6155E-06
-7.4736E-07	6.1033E-08	1.7715E-06	-7.4864E-08
-8.6028E-07	6.1075E-07	1.7113E-06	3.5577E-06
-5.6625E-07	1.0488E-06	4.0036E-06	2.1638E-06
-1.8745E-07	1.3142E-06	3.2017E-06	2.4897E-06
3.2828E-07	1.2539E-06	4.4238E-06	1.3223E-06
7.5749E-07	1.0593E-06	2.3960E-06	1.1567E-06
8.7431E-07	7.2343E-07	2.7582E-06	2.4650E-06
9.6241E-07	3.5546E-07	3.8732E-06	2.8393E-06
8.7069E-07	1.3585E-07	4.0961E-06	6.6509E-07
7.7623E-07	4.3310E-08	1.7840E-06	2.2497E-06
7.0716E-07	-5.8270E-08	4.2526E-06	2.6925E-06
7.6035E-07	-2.0999E-07	3.3163E-06	1.8942E-06
7.0103E-07	-3.6791E-07	4.2827E-06	1.5996E-06
6.6301E-07	-5.5669E-07	2.2728E-06	1.3817E-06
3.4424E-07	-6.8635E-07	3.5719E-06	2.5004E-06
8.8403E-08	-7.1539E-07	2.3471E-06	2.1354E-06
-1.7805E-07	-6.1671E-07	4.5419E-06	3.5269E-06
-2.9922E-07	-4.0627E-07	3.7191E-06	7.5183E-07
-2.8760E-07	-2.7294E-09	2.8255E-06	2.7583E-06
1.3497E-09	3.8551E-08	3.5458E-06	2.5591E-06
1.5500E-07	2.5533E-08	4.5945E-06	3.1154E-06
3.9580E-07	-2.5658E-07	4.5074E-06	9.0404E-07
2.4295E-07	-4.5278E-07	3.3877E-06	1.8301E-06
3.5181E-09	-6.6587E-07	3.0969E-06	1.0715E-06
-4.5852E-07	-5.6546E-07	2.1457E-06	3.7200E-06
-5.7582E-07	-2.9887E-07	5.7224E-06	3.4824E-06
-6.1280E-07	8.4962E-08	5.0476E-06	8.9650E-07
-4.4004E-07	3.4834E-07	3.6039E-06	7.6815E-07
-5.4550E-08	4.6403E-07	3.0448E-06	1.9764E-06
2.8754E-07	3.2824E-07	3.9175E-06	1.6387E-06
3.6007E-07	-3.8728E-08	2.6449E-06	2.3624E-06
3.3397E-07	-3.7915E-07	5.3478E-06	2.8676E-06
2.1271E-08	-4.9366E-07	3.8641E-06	6.7590E-08
-2.4374E-07	-4.9470E-07	3.5710E-06	2.2136E-06
-5.4189E-07	-2.9424E-07	3.6856E-06	-3.3707E-07
-6.1703E-07	8.7726E-08	6.9336E-07	2.1941E-06
-4.8554E-07	2.7540E-07	3.3162E-06	3.6300E-06
-2.1357E-07	4.0477E-07	4.1411E-06	3.3312E-06
-4.8094E-09	3.3347E-07	5.1347E-06	1.2013E-06
1.8345E-07	1.0187E-07	2.4274E-06	1.6477E-06
4.4663E-08	-3.8680E-10	4.2970E-06	2.2216E-06
-2.4959E-08	-1.0344E-07	2.3961E-06	1.9627E-06
-2.5053E-07	1.5942E-08	5.1553E-06	3.1053E-06
-2.9312E-07	2.0500E-07	3.0055E-06	1.3367E-07
-3.1533E-07	3.3672E-07	3.4193E-06	3.8491E-06
-7.0206E-08	5.0664E-07	4.9571E-06	1.1402E-07
1.4557E-07	3.7816E-07	1.1431E-06	1.9511E-06
2.7909E-07	1.6419E-07	4.2631E-06	3.3876E-06
2.3990E-07	-5.1336E-09	3.6262E-06	1.4505E-06
1.8646E-07	-1.0574E-07	3.6357E-06	2.4166E-06
-2.3987E-08	-8.6457E-08	3.6684E-06	1.0720E-06
-8.7255E-08	7.6283E-08	1.9258E-06	1.9794E-06
-7.9439E-08	2.4674E-07	2.8806E-06	3.6133E-06
4.9814E-08	3.4588E-07	4.6169E-06	3.1672E-06
2.7289E-07	3.6154E-07	3.9652E-06	1.1691E-06
4.6955E-07	1.0581E-07	2.6749E-06	2.9679E-06
5.1600E-07	-1.5459E-07	4.9134E-06	2.2842E-06
4.0732E-07	-3.2536E-07	2.9081E-06	1.3531E-06
1.2199E-07	-5.1325E-07	3.3676E-06	2.2694E-06
-8.2310E-08	-3.8948E-07	2.1227E-06	2.2590E-06
-3.5082E-07	-2.1329E-07	3.2620E-06	4.0526E-06
-3.1805E-07	3.2088E-08	3.9182E-06	3.4222E-06
-1.9768E-07	2.9640E-07	4.8894E-06	3.5608E-06
7.8499E-08	3.7818E-07	5.1287E-06	2.3658E-06
3.4122E-07	1.7296E-07	4.9231E-06	1.4459E-06
5.2593E-07	2.3833E-08	3.3225E-06	1.8958E-06
4.9448E-07	-1.6728E-07	5.1579E-06	2.2358E-06
3.7391E-07	-3.9174E-07	3.2556E-06	6.6075E-07
1.4952E-07	-4.9646E-07	3.7432E-06	2.4352E-06
-8.9966E-08	-4.0875E-07	3.0579E-06	1.4485E-06
-2.8165E-07	-3.3416E-07	4.0636E-06	2.7058E-06
-3.3177E-07	-2.5390E-07	2.4371E-06	9.3702E-07
-3.7269E-07	-1.1695E-07	3.2764E-06	4.7278E-06
-2.8724E-07	-3.2761E-08	5.1692E-06	1.3938E-06
-2.5202E-07	-2.9033E-08	2.9744E-06	2.5165E-06
-2.3574E-07	9.2310E-08	3.9171E-06	2.1759E-06
-3.0437E-07	1.4144E-07	3.6892E-06	3.4254E-06
-1.7262E-07	2.8048E-07	5.0201E-06	1.7000E-06
-1.2096E-07	2.2139E-07	3.1645E-06	2.5849E-06
-9.4284E-10	2.2436E-07	5.2990E-06	2.7157E-06
1.4449E-07	2.0718E-07	4.9672E-06	1.1864E-06
2.1502E-07	-4.8563E-09	3.7993E-06	3.1123E-07
2.1987E-07	-7.0823E-08	2.8796E-06	1.9290E-06
6.2292E-08	-1.8306E-07	4.0661E-06	8.2593E-07
-1.0217E-07	-9.2483E-08	1.3036E-06	1.1735E-06
-2.8881E-07	-7.2713E-11	2.4557E-06	3.6125E-06
-2.1447E-07	1.6080E-07	3.6927E-06	2.8970E-06
-2.2664E-07	2.6122E-07	3.2989E-06	2.6478E-06
-7.6290E-08	2.9245E-07	4.1170E-06	3.0202E-06
6.8736E-08	2.4021E-07	3.4888E-06	1.3316E-06
2.4079E-07	1.4521E-07	2.3210E-06	3.5996E-06
3.1080E-07	5.2122E-08	4.7187E-06	3.1020E-06
2.0597E-07	-1.2704E-07	3.2930E-06	2.5099E-06
9.1147E-08	-1.4153E-07	4.2448E-06	3.3480E-06
-5.7575E-08	-1.6834E-07	4.0392E-06	2.6552E-06
-1.1624E-07	-1.6165E-08	4.6300E-06	3.6072E-06
-1.0423E-07	2.2445E-09	6.1158E-06	1.7927E-06
-1.7880E-08	1.1436E-07	3.4058E-06	5.8605E-07
2.3436E-08	6.7612E-08	3.9289E-06	3.2013E-06
8.8928E-08	1.1227E-07	4.7915E-06	1.0217E-06
1.1069E-07	3.7695E-08	3.3441E-06	2.1684E-06
1.1826E-07	9.0852E-08	4.3132E-06	1.1955E-06
4.7697E-08	1.1093E-09	2.3669E-06	2.3862E-06
3.3203E-08	-2.1507E-08	4.8307E-06	3.0720E-06
6.1831E-08	1.0504E-08	4.5922E-06	1.5081E-06
1.3259E-07	5.8847E-10	4.3069E-06	8.7275E-07
1.3152E-07	-4.0876E-08	2.8169E-06	9.3208E-07
2.4523E-07	-1.2695E-07	2.7337E-06	1.6507E-06
1.5357E-07	-2.2754E-07	2.2696E-06	2.6987E-06
1.5229E-07	-2.0989E-07	4.1468E-06	3.1005E-06
-5.8160E-08	-2.7906E-07	3.5739E-06	1.4464E-06
-1.6176E-07	-2.3219E-07	2.6510E-06	2.8699E-06
-2.5369E-07	-6.8425E-08	4.4840E-06	3.1521E-06
-2.4614E-07	7.9000E-08	4.2782E-06	1.7129E-06
-1.9271E-07	1.0933E-07	4.1269E-06	1.5010E-06
-7.2977E-08	1.6718E-07	2.1718E-06	1.3206E-06
-4.3173E-08	1.0589E-07	3.6759E-06	3.0978E-06
9.9393E-08	7.9631E-08	4.3977E-06	8.9032E-07
1.0778E-08	-2.9913E-08	2.0720E-06	3.1869E-06
-3.6018E-08	-1.3104E-07	5.1862E-06	1.8122E-06
-1.1572E-07	-1.2796E-07	2.2962E-06	1.9221E-06
-1.1155E-07	-9.5169E-08	4.4163E-06	1.8384E-06
-1.3588E-07	6.2712E-08	1.6112E-06	2.0316E-06
-1.4214E-07	1.3064E-07	4.4863E-06	3.3266E-06
-1.2711E-07	1.9082E-07	3.2035E-06	1.6472E-06
-1.5517E-08	1.6836E-07	4.1483E-06	2.0587E-06
2.0505E-08	1.6425E-07	2.1141E-06	1.5997E-06
5.1201E-08	6.7734E-08	4.1079E-06	3.0521E-06
-6.0620E-09	4.0570E-08	2.7302E-06	9.8181E-07
7.7809E-08	-3.6049E-08	2.9561E-06	3.0378E-06
5.2959E-08	2.5632E-08	3.2392E-06	1.6271E-06
2.6015E-08	-8.4731E-08	2.0901E-06	2.1425E-06
-4.3860E-08	-7.6692E-08	2.0981E-06	4.1046E-06
-4.5549E-08	7.7369E-09	5.4098E-06	3.1462E-06
-5.8600E-08	2.3642E-09	2.5625E-06	1.0042E-06
-1.0475E-07	1.5660E-08	3.3866E-06	2.9929E-06
-5.4701E-08	5.6377E-08	1.9061E-06	1.6100E-06
-9.2633E-08	1.1672E-07	2.9213E-06	4.5970E-06
2.9691E-08	1.7088E-07	4.0047E-06	2.2893E-06
9.0934E-08	1.5960E-07	2.9958E-06	2.6792E-06
1.5295E-07	1.4182E-07	2.4122E-06	3.0605E-06
1.6627E-07	5.6899E-08	4.1002E-06	4.0398E-06
2.4614E-07	-2.7180E-08	3.2844E-06	2.6287E-06
1.8022E-07	-4.9423E-08	5.1731E-06	3.9195E-06
1.4750E-07	-1.1707E-07	3.4539E-06	2.0837E-07
9.9690E-08	-1.2148E-07	2.7445E-06	4.3496E-06
2.3341E-08	-5.4735E-08	4.6753E-06	1.1176E-06
-4.1093E-08	-8.1424E-08	1.8164E-06	3.1414E-06
-4.0620E-10	-5.9283E-08	4.2853E-06	2.7637E-06
-2.8063E-08	-8.9262E-08	2.8693E-06	2.7615E-06
-4.2819E-08	-6.8880E-08	3.6851E-06	2.6210E-06
4.2996E-08	-8.7615E-08	3.1721E-06	3.2979E-06
-5.8924E-08	-6.3090E-08	4.0928E-06	1.9939E-06
-4.7776E-08	-5.6505E-08	2.0423E-06	3.5234E-06
-2.8572E-10	-1.5916E-07	4.8536E-06	3.6604E-06
-1.2820E-07	-9.1724E-08	3.8554E-06	2.7278E-06
-1.4167E-07	-1.2372E-07	5.2539E-06	2.5261E-06
-9.8471E-08	-7.5168E-08	3.4751E-06	7.3465E-07
-1.3546E-07	4.8470E-09	2.7234E-06	2.9194E-06
-5.8268E-08	-2.5936E-08	5.0125E-06	2.4133E-06
-9.6095E-08	-3.7176E-09	3.2266E-06	-2.2847E-07
-9.9751E-08	4.6701E-08	1.1425E-06	2.3114E-06
-9.4808E-08	5.5657E-08	2.7829E-06	2.7097E-06
-1.2201E-07	6.4187E-08	2.2201E-06	3.1566E-06
-1.9338E-08	9.0204E-08	3.8944E-06	2.9290E-06
5.0634E-08	8.3017E-08	2.4810E-06	1.5405E-06
3.6189E-08	4.5244E-08	1.4799E-06	3.3229E-06
-9.9620E-09	8.2493E-08	3.4057E-06	4.4608E-06
1.6384E-09	6.9448E-08	4.1115E-06	2.2896E-06
-5.8267E-09	3.1363E-08	2.7320E-06	2.7264E-06
2.7947E-08	-9.4434E-09	3.3546E-06	2.0883E-06
9.6699E-09	2.5101E-08	1.5441E-06	2.7121E-06
4.6411E-09	4.8305E-08	2.8880E-06	3.4485E-06
3.4121E-08	2.3538E-09	1.8378E-06	3.0531E-06
-1.1435E-08	6.3281E-08	2.3783E-06	4.6295E-06
4.3748E-08	6.4371E-08	3.6742E-06	4.6236E-06
8.0306E-08	2.8074E-08	4.2180E-06	3.2061E-06
4.1492E-08	2.3615E-08	3.0204E-06	3.8331E-06
