jMRUI Data Textfile

Filename: Export_to_jmrui.txt

PointsInDataset: 2048
DatasetsInFile: 1
SamplingInterval: 0.250000
ZeroOrderPhase: 0E0
BeginTime: 0E0
TransmitterFrequency: 1.2326E8
MagneticField: 2.8936E0
TypeOfNucleus:  
NameOfPatient:  
DateOfExperiment:  
Spectrometer:  
AdditionalInfo: 
SignalNames:  


Signal and FFT
sig(real)	sig(imag)	fft(real)	fft(imag)
Signal 1 out of 1 in file
3.5156E-06	1.7048E-06	-1.2360E-06	1.0210E-06
3.8012E-06	-5.8613E-08	1.6658E-07	2.9802E-06
3.0893E-06	-1.6414E-06	1.0775E-06	2.8717E-06
1.8853E-06	-2.5406E-06	1.9060E-06	1.2299E-06
3.7482E-07	-2.6201E-06	-5.8603E-07	2.6353E-06
-7.9249E-07	-1.9523E-06	3.0884E-06	2.8682E-06
-1.1517E-06	-9.1782E-07	-5.1897E-08	1.5206E-06
-1.0760E-06	-6.5909E-08	3.2637E-06	4.0803E-06
-4.0459E-07	4.9923E-07	1.7336E-06	4.6761E-07
2.9401E-07	4.3121E-07	2.8783E-06	3.4491E-06
7.1126E-07	-9.9118E-08	2.3475E-06	-7.0111E-07
6.2549E-07	-5.1916E-07	9.4115E-07	2.9800E-06
2.5207E-07	-8.9051E-07	2.7342E-06	4.2862E-07
-2.1629E-07	-9.4178E-07	5.8472E-07	2.4604E-06
-5.9939E-07	-6.9026E-07	2.5719E-06	1.4589E-06
-6.8175E-07	-3.2914E-07	9.9906E-07	3.1522E-06
-5.7069E-07	-1.1480E-07	4.5792E-06	2.0495E-06
-3.1966E-07	-5.0914E-09	1.7784E-06	1.0242E-06
-1.7366E-07	-8.0288E-08	4.6574E-06	2.1722E-06
-2.1993E-07	-2.4098E-07	3.0808E-06	-2.0065E-06
-3.6988E-07	-3.6596E-07	4.3464E-07	3.4627E-07
-6.6687E-07	-2.6717E-07	1.4493E-06	1.1246E-06
-7.9607E-07	5.3684E-08	1.7868E-06	1.7801E-06
-7.5085E-07	2.6611E-07	3.1237E-06	8.4755E-07
-4.7130E-07	5.5352E-07	2.0183E-06	-1.1945E-07
-1.4396E-07	5.8776E-07	1.6808E-06	2.1915E-08
1.4839E-07	4.2867E-07	5.9118E-07	3.2772E-07
2.8769E-07	1.4527E-07	1.3590E-06	1.5669E-06
1.5956E-07	-1.0381E-07	1.7954E-06	9.5488E-07
-2.4076E-07	-1.6053E-07	2.4393E-06	6.7251E-07
-4.2873E-07	-2.9695E-08	9.7878E-07	-1.0981E-06
-5.5439E-07	1.9931E-07	-4.1905E-07	1.3695E-06
-4.6279E-07	5.7840E-07	1.2777E-06	1.4744E-06
-1.4099E-07	6.9904E-07	9.4427E-07	1.6405E-06
1.5885E-07	6.9039E-07	2.0742E-06	1.0872E-06
3.9173E-07	5.7844E-07	5.3225E-07	4.2141E-07
4.5571E-07	3.9976E-07	4.5438E-07	2.1424E-06
4.9321E-07	2.3050E-07	1.9599E-06	2.5147E-06
3.7630E-07	1.5622E-07	3.0760E-06	1.0659E-06
3.6832E-07	4.5168E-08	1.8084E-06	-4.0768E-07
3.4182E-07	7.1849E-08	5.6867E-07	1.0510E-07
4.6664E-07	2.2585E-08	-9.9513E-08	7.5059E-07
5.2207E-07	-1.1526E-07	-5.4705E-08	2.5755E-06
5.3325E-07	-2.7635E-07	2.4806E-06	2.6052E-06
3.9066E-07	-5.1497E-07	1.7986E-06	4.0108E-07
2.3315E-07	-4.6968E-07	1.4016E-06	1.8815E-06
1.2680E-09	-4.7125E-07	2.6288E-06	-2.8779E-07
-1.1595E-07	-3.3555E-07	-1.0855E-06	-6.8512E-08
-1.9900E-07	-1.8262E-07	6.2970E-07	3.0300E-06
-8.4804E-08	-5.9168E-08	1.7053E-06	9.0412E-07
2.5156E-08	4.1735E-08	3.7222E-07	1.4433E-06
1.1884E-07	-1.1938E-07	9.9478E-07	1.3790E-06
2.0701E-08	-1.9747E-07	-3.2151E-07	1.8905E-06
2.0078E-08	-3.3436E-07	1.3089E-06	3.5993E-06
-2.1619E-07	-3.3610E-07	2.3231E-06	1.9763E-06
-3.0826E-07	-1.5756E-07	1.8208E-06	1.9791E-06
-2.8798E-07	4.1960E-08	2.0701E-06	1.4940E-06
-2.3969E-07	2.3070E-07	1.7803E-06	1.8511E-06
-7.7851E-08	2.8036E-07	2.7554E-06	1.4271E-06
2.3016E-07	1.9530E-07	2.6627E-06	1.4311E-07
2.7142E-07	-1.0271E-07	9.5090E-07	-1.2051E-06
2.5646E-07	-2.7120E-07	-1.2517E-06	8.5098E-07
7.3856E-08	-3.9414E-07	1.6400E-07	2.4858E-06
-1.5950E-07	-3.6127E-07	1.1597E-06	2.3360E-06
-3.8654E-07	-2.2470E-07	9.8524E-07	8.8159E-07
-4.3767E-07	-4.5408E-08	-8.7143E-07	2.8768E-06
-3.8494E-07	1.5850E-07	2.2061E-06	3.5602E-06
-1.9332E-07	2.7396E-07	1.1167E-06	2.4114E-06
-1.1481E-07	2.4734E-07	3.2356E-06	3.7498E-06
3.3637E-08	1.9270E-07	3.4837E-06	5.8291E-07
2.2247E-08	9.6311E-08	1.9882E-06	7.2962E-07
3.9408E-08	1.1454E-07	1.5551E-06	4.5248E-07
-4.8463E-08	6.6112E-08	5.9159E-07	7.3115E-07
-1.3407E-07	1.9609E-07	-5.2611E-08	2.7566E-06
-7.8485E-08	1.9587E-07	3.6059E-06	2.8013E-06
1.1844E-07	2.1120E-07	1.1619E-06	-5.1093E-07
1.3908E-07	1.3314E-07	1.1376E-06	3.0194E-06
1.6450E-07	6.7511E-08	2.1319E-06	1.5838E-07
1.2761E-07	-2.7130E-08	6.4633E-08	2.6102E-06
3.6310E-08	-3.0728E-08	2.9386E-06	1.8371E-06
-1.2774E-07	1.8511E-08	1.2261E-06	1.0975E-06
-1.2522E-07	2.1830E-07	1.6028E-06	1.3441E-06
-5.9350E-08	2.9960E-07	7.2570E-07	1.9834E-06
1.0972E-07	2.9489E-07	2.4280E-06	2.5026E-06
2.5634E-07	2.1083E-07	2.5986E-06	7.7231E-07
4.5342E-07	1.3216E-07	6.9677E-07	3.5968E-07
3.5590E-07	-9.0001E-08	7.2148E-07	2.8391E-06
3.0720E-07	-2.4550E-07	2.5705E-06	1.6215E-06
8.9942E-08	-3.7610E-07	1.2176E-06	1.9509E-06
-5.8629E-08	-2.6573E-07	3.1674E-06	1.9339E-06
-2.2185E-07	-1.5551E-07	2.2336E-06	2.7925E-07
-1.6291E-07	3.7528E-08	1.5197E-06	6.1930E-07
-1.0205E-07	1.8537E-07	1.2471E-06	1.1432E-06
5.0116E-08	2.0017E-07	1.8481E-06	8.8134E-07
1.8008E-07	1.3559E-07	9.5069E-07	5.4831E-07
2.4106E-07	2.1728E-08	5.7724E-07	1.3210E-06
2.5652E-07	-1.1688E-07	1.4540E-06	2.1546E-06
2.0759E-07	-1.9182E-07	1.8437E-06	5.1081E-07
3.5712E-08	-2.8613E-07	3.5522E-07	1.6914E-06
-1.0182E-07	-2.8127E-07	2.2388E-06	1.4751E-06
-1.9405E-07	-1.6271E-07	1.0184E-06	6.8697E-07
-1.5271E-07	-1.3960E-07	9.8401E-07	5.9649E-07
-2.1586E-07	-1.0495E-07	-6.1728E-07	1.8906E-06
-6.8831E-08	-4.4197E-08	1.9888E-06	2.6506E-06
-1.6817E-07	-5.3176E-08	8.6012E-07	1.0476E-06
-1.9132E-07	2.1750E-08	1.1174E-06	2.2441E-06
-1.6743E-07	1.1490E-07	9.6968E-07	2.0676E-06
-1.4569E-07	1.6604E-07	1.9048E-06	2.4844E-06
-1.0873E-07	1.7513E-07	1.7282E-06	2.5370E-06
-6.7224E-08	9.8491E-08	4.5475E-06	1.8376E-06
2.2859E-08	9.7088E-08	1.8722E-06	-1.8824E-06
2.0178E-08	3.6062E-08	2.7020E-07	9.1851E-07
8.5368E-08	-7.4086E-08	1.0018E-06	2.3236E-07
-4.6762E-09	-1.0416E-07	-2.4664E-07	7.1816E-07
-1.2913E-07	-9.7390E-08	-5.5366E-07	2.2615E-06
-1.4308E-07	-1.7643E-08	2.0172E-06	2.7872E-06
-1.2526E-07	1.6938E-07	8.3743E-07	1.8048E-07
-1.1620E-07	1.8188E-07	5.6835E-08	2.3672E-06
8.5336E-09	2.1338E-07	5.9102E-07	1.7892E-06
6.3511E-08	1.9945E-07	8.2389E-07	3.1288E-06
7.0620E-08	1.2073E-07	1.4280E-06	2.0693E-06
1.1757E-07	3.7433E-08	1.9563E-06	3.2517E-06
6.8201E-08	1.3160E-08	2.9354E-06	3.2869E-07
1.2205E-07	-1.1819E-07	-4.0449E-07	8.5629E-07
-5.3637E-08	-1.4504E-07	2.6941E-07	2.9778E-06
-5.6194E-08	-1.4005E-07	2.1255E-06	3.9053E-06
-5.6306E-08	-2.8306E-08	3.5249E-06	7.9618E-07
-8.4480E-09	3.5063E-08	1.8623E-07	1.2320E-06
-1.1627E-08	5.2192E-08	2.3885E-06	2.6646E-06
6.0145E-08	8.4718E-08	1.7074E-06	7.1469E-07
-3.3657E-09	5.2652E-08	1.0529E-06	2.0356E-06
9.9453E-08	8.6094E-08	2.0755E-06	1.9548E-06
9.9275E-08	2.7118E-08	1.8681E-06	1.3108E-06
7.2873E-08	1.6742E-08	1.7836E-06	1.4413E-06
1.0013E-07	-5.1260E-08	1.4351E-06	1.0660E-06
1.4278E-07	-1.0661E-07	1.5906E-06	1.9967E-06
1.5709E-07	-6.6528E-08	2.1843E-06	7.8005E-07
1.4781E-07	-1.4932E-07	1.0830E-06	1.2805E-06
5.0308E-08	-1.7921E-07	1.8054E-06	1.1945E-06
4.2244E-08	-1.6121E-07	1.9297E-06	1.4729E-06
-4.8760E-08	-2.0095E-07	2.3655E-06	-1.1117E-06
-1.2876E-07	-1.5810E-07	-1.8637E-06	4.5998E-07
-1.6014E-07	-7.5320E-08	1.1488E-06	1.8565E-06
-1.3921E-07	2.6163E-08	2.5867E-06	-1.6019E-07
-6.7858E-08	1.0799E-07	-7.8975E-07	1.6753E-06
-7.1784E-08	1.0178E-07	1.1252E-06	2.0652E-06
-7.2852E-08	2.2556E-08	5.7092E-07	1.5763E-06
1.7517E-08	-1.9491E-10	8.4087E-07	2.3536E-06
-1.0387E-08	-2.8796E-08	1.9143E-06	1.5277E-06
-5.6266E-08	1.9970E-09	2.9347E-07	6.2577E-07
-2.3253E-08	6.0323E-08	1.3848E-07	2.2284E-06
-1.4201E-07	7.2832E-09	2.6492E-07	2.2896E-06
-2.6620E-08	1.0876E-07	1.5687E-06	3.8080E-06
7.8639E-09	9.3798E-08	3.4278E-06	1.2145E-06
-6.9384E-08	1.2260E-07	1.0398E-06	-1.0579E-07
4.6019E-08	7.3375E-08	-1.5095E-07	1.1036E-06
1.5960E-08	1.1031E-07	7.5789E-07	2.4699E-06
7.8355E-08	9.2767E-08	1.4110E-06	4.9346E-07
6.2728E-08	7.2064E-08	-1.5025E-06	1.4992E-06
1.4475E-08	-1.1871E-08	6.2135E-07	3.9207E-06
7.2525E-08	-7.3471E-08	1.6769E-06	2.1778E-06
3.6604E-08	-5.9183E-08	9.8234E-07	2.0365E-06
-1.6810E-08	-6.5369E-08	1.0575E-06	2.2461E-06
3.1582E-08	4.1895E-08	1.2460E-06	1.9350E-06
-7.7709E-08	-5.2600E-08	4.7735E-07	2.2043E-06
-2.7494E-08	-1.1320E-08	1.6725E-06	3.0718E-06
-1.0157E-07	1.7362E-08	2.1274E-06	1.3420E-06
-8.6626E-08	1.2187E-07	4.7764E-07	1.1310E-06
1.8589E-09	1.0549E-07	2.8982E-08	2.8572E-06
6.6786E-08	1.2219E-07	2.2192E-06	3.3254E-06
4.3781E-08	9.9931E-08	2.0653E-06	1.3385E-06
1.2555E-07	1.0610E-07	1.6022E-06	1.8084E-06
1.1142E-07	2.3640E-08	1.0855E-06	7.4011E-07
1.1117E-07	-5.3379E-08	2.6425E-07	2.6835E-06
1.2259E-07	-1.1243E-07	2.2001E-06	1.9142E-06
3.3896E-08	-6.1369E-08	7.8733E-07	1.5764E-06
4.2112E-08	-5.6256E-08	1.6823E-06	1.7646E-06
6.6209E-08	-9.2319E-08	4.8359E-07	1.3325E-06
-3.0658E-09	-6.9282E-08	1.2276E-06	2.3819E-06
-2.5264E-08	-6.0348E-08	1.2688E-06	1.1921E-06
3.0017E-08	-1.1518E-07	8.8105E-08	1.4304E-06
-3.6053E-08	-1.0134E-07	-3.1282E-08	3.1738E-06
-5.1027E-08	-1.3993E-07	2.4921E-06	3.0752E-06
1.3675E-08	-7.9682E-08	1.6877E-06	7.8801E-07
-2.5374E-08	-1.0097E-07	5.9227E-07	1.4573E-06
-5.3645E-08	-9.2162E-08	9.6732E-08	1.7337E-06
-1.5889E-07	-4.0749E-08	3.4580E-07	2.9762E-06
-1.2862E-07	-6.4792E-08	1.0906E-06	3.0070E-06
-1.2412E-07	6.8339E-09	2.2372E-06	3.0126E-06
-9.9619E-08	1.9943E-08	2.1023E-06	8.4073E-07
-8.8566E-08	9.3391E-08	1.6516E-08	1.7216E-06
-3.3104E-08	7.9415E-08	1.2874E-06	2.7872E-06
-6.1539E-08	5.9308E-08	1.1443E-06	1.8887E-06
-1.3430E-08	4.1717E-09	1.3285E-06	2.9174E-06
-5.1743E-09	2.5491E-08	2.3601E-06	1.2826E-06
5.5268E-08	2.6442E-08	2.6232E-08	1.5038E-06
-1.4048E-08	1.6166E-08	1.7812E-06	2.6639E-06
7.0116E-08	7.1930E-08	8.5946E-07	8.7763E-07
9.6078E-09	1.0315E-08	4.9903E-07	2.0496E-06
1.9350E-08	7.4226E-08	-7.1431E-07	1.8961E-06
8.6819E-09	1.4626E-08	6.9877E-07	5.2411E-06
-3.1420E-08	7.0651E-08	3.1601E-06	2.5362E-06
-6.9182E-08	-5.2801E-08	1.9920E-06	2.5335E-06
-1.0090E-08	1.5546E-08	2.6624E-06	8.4289E-07
2.1735E-09	2.0165E-08	4.2804E-07	1.3142E-06
-6.0024E-08	-2.3039E-09	8.5601E-07	1.5412E-06
4.8540E-09	-6.6431E-09	-2.5490E-08	3.0141E-06
