jMRUI Data Textfile

Filename: Export_to_jmrui.txt

PointsInDataset: 2048
DatasetsInFile: 1
SamplingInterval: 0.250000
ZeroOrderPhase: 0E0
BeginTime: 0E0
TransmitterFrequency: 1.2326E8
MagneticField: 2.8936E0
TypeOfNucleus:  
NameOfPatient:  
DateOfExperiment:  
Spectrometer:  
AdditionalInfo: 
SignalNames:  


Signal and FFT
sig(real)	sig(imag)	fft(real)	fft(imag)
Signal 1 out of 1 in file
2.5388E-06	2.4914E-07	-1.2380E-06	5.4168E-07
2.5543E-06	-8.3502E-07	-4.5380E-07	2.0622E-06
1.8762E-06	-1.7973E-06	1.0573E-06	2.6378E-06
9.7369E-07	-2.3333E-06	2.6048E-06	1.2359E-06
-9.1103E-09	-2.1620E-06	1.7159E-06	6.1900E-08
-7.8846E-07	-1.5397E-06	1.3669E-06	-4.0956E-08
-9.5290E-07	-8.0545E-07	8.0103E-07	1.6267E-09
-8.6630E-07	-2.1087E-07	4.5235E-07	-1.0962E-07
-3.4265E-07	9.6605E-08	-4.8430E-07	1.3854E-06
7.6716E-08	-3.7577E-08	2.0493E-06	2.2769E-06
2.9938E-07	-3.3818E-07	2.5575E-06	-1.9490E-07
2.5545E-07	-5.9376E-07	7.2175E-07	-7.5986E-07
-4.5788E-08	-7.8781E-07	2.2303E-07	7.1277E-07
-4.7379E-07	-7.5405E-07	1.2341E-06	3.2650E-07
-6.9132E-07	-5.5113E-07	-8.4357E-08	3.4762E-07
-6.5629E-07	-1.4858E-07	7.2702E-07	1.6076E-06
-5.4929E-07	-5.1349E-08	1.4054E-06	1.0772E-06
-2.7610E-07	6.5280E-08	1.5487E-06	5.1893E-07
-1.7554E-07	-6.0354E-08	9.2656E-07	2.9176E-07
-1.4677E-07	-1.3093E-07	9.0096E-07	4.0958E-07
-4.0313E-07	-1.7931E-07	3.4759E-07	5.0281E-07
-4.5657E-07	-2.4993E-07	2.1620E-07	1.1022E-06
-6.5441E-07	5.5937E-09	5.6108E-07	2.2192E-06
-5.6103E-07	2.3124E-07	2.5424E-06	1.8022E-06
-4.5584E-07	4.4158E-07	2.1480E-06	-2.8474E-07
-2.0889E-07	4.5235E-07	-2.8294E-07	-3.8487E-07
4.0042E-08	4.0558E-07	-3.6555E-07	3.1494E-06
1.3294E-07	1.8269E-07	3.2068E-06	2.0321E-06
-1.5482E-08	-1.5999E-09	1.2089E-06	9.3640E-07
-1.8580E-07	1.1419E-08	3.0105E-06	1.8721E-06
-4.2461E-07	7.1705E-08	2.0993E-06	-1.1698E-07
-4.4509E-07	3.0230E-07	2.1228E-06	1.1470E-06
-3.9880E-07	5.2004E-07	2.5468E-06	1.9419E-08
-1.0354E-07	6.9175E-07	1.9049E-06	-4.4133E-07
8.1004E-08	6.6439E-07	5.7339E-07	2.7009E-07
2.5574E-07	6.1871E-07	2.4170E-06	1.3770E-06
3.4928E-07	4.0069E-07	2.3294E-06	-5.6914E-07
4.2724E-07	2.1068E-07	1.8732E-06	-5.9263E-07
3.0024E-07	1.4174E-07	3.4052E-07	-9.8463E-07
2.4992E-07	6.8678E-08	6.6530E-07	7.1085E-07
2.5288E-07	6.4225E-08	4.8155E-07	1.8240E-07
3.5312E-07	6.4996E-08	1.1483E-06	1.1834E-06
3.4451E-07	-2.7037E-08	1.7467E-07	4.4755E-07
3.8042E-07	-1.8091E-07	1.8764E-06	3.1904E-06
3.6944E-07	-2.8233E-07	3.2031E-06	-2.7793E-07
2.3142E-07	-3.5185E-07	1.7746E-06	8.9067E-07
8.3154E-08	-3.6808E-07	2.6994E-06	-1.2201E-06
-3.2360E-08	-2.5709E-07	6.0876E-08	1.0997E-07
-3.4961E-08	-1.3011E-07	1.7202E-06	4.2610E-07
4.9110E-09	-6.4022E-08	9.2882E-07	1.0671E-06
8.7945E-08	-1.8831E-08	3.2681E-06	5.7034E-07
1.2894E-07	-4.5978E-08	2.1160E-06	-1.3172E-06
1.4468E-07	-1.7630E-07	6.9263E-07	-1.6038E-06
4.5995E-09	-3.0747E-07	-5.0540E-07	6.5315E-07
-1.2085E-07	-2.5166E-07	1.8353E-06	3.3992E-07
-2.4511E-07	-1.7495E-07	-2.0030E-07	1.8338E-07
-1.8922E-07	-5.6173E-08	1.8998E-06	1.7039E-06
-1.7624E-07	1.3071E-07	2.1523E-06	-7.3416E-08
-4.2210E-08	1.1758E-07	2.2476E-06	-1.0298E-06
1.5282E-07	4.2681E-08	-6.4579E-07	-1.6856E-06
1.7304E-07	-1.3242E-07	-2.3520E-07	1.4299E-06
7.5991E-08	-2.8002E-07	9.5810E-07	2.6347E-07
4.9181E-08	-3.4874E-07	-1.0003E-07	7.8580E-07
-1.7189E-07	-2.8645E-07	7.4958E-07	2.0863E-06
-2.2823E-07	-1.8699E-07	2.7081E-06	1.1804E-06
-3.0546E-07	-3.0913E-08	1.4948E-06	-3.7289E-07
-3.9715E-07	1.0148E-07	1.5399E-06	2.8424E-07
-2.5194E-07	1.4074E-07	6.2836E-07	-6.5858E-07
-1.7859E-07	1.6468E-07	3.4122E-07	1.0311E-06
-9.1987E-08	1.9955E-07	1.1614E-06	7.3056E-07
-8.6923E-08	5.5159E-08	1.6029E-06	6.7607E-07
-3.7161E-08	1.1213E-07	6.7751E-07	-5.6723E-07
-3.3261E-08	1.0856E-07	9.9805E-08	1.5895E-06
-1.8296E-09	1.6545E-07	1.9210E-06	8.8778E-07
1.2562E-08	1.7464E-07	8.9176E-07	3.7693E-07
1.1380E-07	1.5392E-07	8.3604E-07	1.3543E-06
1.0517E-07	1.4262E-07	2.7930E-06	1.5753E-06
1.6566E-07	2.7109E-08	2.1586E-06	-1.4215E-06
3.1076E-08	-5.9092E-08	4.1244E-07	6.8654E-07
-3.0116E-08	2.8304E-08	2.3051E-06	-6.6382E-07
-2.3884E-08	1.4715E-07	-5.2258E-07	-3.7982E-07
-8.6227E-08	9.9519E-08	1.1153E-06	6.3133E-07
-5.8901E-08	2.3883E-07	-3.7293E-07	2.5502E-07
1.4338E-07	2.7821E-07	1.1770E-06	1.7895E-06
2.3606E-07	2.4019E-07	8.4800E-07	4.0687E-07
2.9820E-07	5.3956E-09	1.3648E-06	1.7125E-06
3.3788E-07	-1.3527E-07	1.8534E-06	8.6692E-08
2.6619E-07	-2.5369E-07	8.3601E-07	6.5613E-07
4.3808E-08	-2.7336E-07	1.5184E-06	7.8474E-07
-2.7755E-08	-2.1751E-07	1.7608E-06	4.2688E-07
-1.0665E-07	-1.0806E-07	1.3699E-06	-5.6281E-07
-1.4907E-07	-6.4884E-08	1.6576E-09	1.8779E-07
-8.9112E-08	1.1403E-07	1.0777E-06	1.1264E-06
1.0488E-07	1.2759E-07	9.6213E-07	-4.2286E-08
1.5323E-07	9.4697E-08	1.2516E-07	1.1479E-06
1.3496E-07	1.1599E-08	1.6236E-06	1.2212E-06
1.8561E-07	-1.0146E-07	1.0328E-06	4.1896E-07
1.7934E-07	-1.9994E-07	1.2265E-06	9.7074E-07
-2.4316E-08	-2.0339E-07	1.0878E-06	3.1829E-07
-2.1644E-09	-1.9599E-07	6.4547E-07	1.2775E-06
-1.2581E-07	-1.3202E-07	2.1059E-06	1.0576E-06
-2.0813E-07	-1.7760E-07	9.1379E-07	-1.7597E-07
-1.7125E-07	-6.0026E-08	8.3767E-07	1.7074E-06
-8.4886E-08	-1.7113E-09	2.1675E-06	4.5670E-07
-1.5881E-07	-1.7489E-08	7.5948E-07	7.5167E-07
-1.3133E-07	3.5309E-08	2.0880E-06	1.1503E-06
-1.1536E-07	7.4265E-08	1.9786E-06	2.4295E-07
-1.1721E-07	1.0565E-07	1.6088E-06	-3.1278E-07
-1.4157E-07	1.0455E-07	9.9258E-07	5.7922E-07
-5.0013E-08	9.5393E-08	2.1294E-06	-6.4346E-07
-5.2556E-08	3.1354E-08	-7.9414E-07	-1.0293E-07
-5.2700E-09	4.5134E-08	1.8907E-06	1.6656E-06
7.4753E-08	4.4478E-08	7.6849E-07	-7.3893E-07
6.2809E-08	-5.3347E-08	7.6101E-07	1.2604E-06
-4.3843E-08	-4.2000E-08	7.4759E-07	1.4173E-07
-3.6251E-08	1.9696E-08	1.2171E-06	1.9639E-06
-9.7411E-08	1.1376E-08	2.4390E-06	-4.4660E-07
-1.0376E-07	1.3567E-07	-1.0951E-07	-1.3703E-07
-1.7333E-08	1.4813E-07	6.9529E-07	1.7439E-06
-1.7967E-08	8.5026E-08	2.7314E-06	8.8857E-07
7.7282E-08	1.1473E-07	1.0734E-06	-1.4890E-06
1.4302E-07	5.9775E-08	-5.4587E-07	8.6831E-07
1.4652E-07	-5.3929E-08	9.7666E-07	1.2873E-06
4.5654E-08	-8.0523E-08	1.2073E-06	1.5785E-06
-2.6494E-08	-1.2716E-07	2.6922E-06	7.2264E-07
-6.0624E-08	-6.2606E-08	1.6379E-06	-1.0516E-06
-7.6917E-08	-1.2162E-08	-2.0857E-07	-4.3021E-07
-5.7304E-08	2.2256E-08	-2.2351E-08	1.2606E-06
-3.5715E-08	9.1379E-08	9.7352E-07	1.4587E-06
4.1875E-08	1.1519E-07	1.6710E-06	1.0556E-06
5.2267E-08	1.6376E-07	9.6415E-07	3.5597E-07
5.8619E-08	1.0745E-07	1.2970E-06	1.6851E-06
7.2512E-08	3.3999E-08	2.2623E-06	7.9603E-08
1.3395E-07	-4.3019E-08	4.1067E-07	7.1535E-07
1.2710E-07	-4.6333E-08	2.9032E-06	1.6002E-06
8.7828E-08	-1.7787E-08	2.2454E-06	-1.8034E-06
1.4240E-07	-1.2708E-07	-2.2590E-07	4.2482E-07
1.2400E-07	-2.1858E-07	2.8163E-06	1.1099E-07
5.8565E-08	-1.2101E-07	-3.3681E-07	-1.9280E-06
-3.8011E-08	-1.9717E-07	1.4811E-07	1.4969E-06
-2.7145E-08	-1.0563E-07	9.3344E-07	-7.9129E-07
-7.9673E-08	-1.2543E-07	-7.6618E-07	1.1542E-06
-9.3646E-08	-3.1931E-08	1.4417E-06	9.1786E-07
-8.0574E-08	-2.0100E-08	-4.9647E-08	2.7079E-07
-8.6220E-08	2.5361E-08	6.2763E-07	2.0112E-06
-2.7338E-09	3.2299E-08	2.3547E-06	7.0162E-07
1.0319E-08	-4.6445E-09	6.1255E-07	-5.8822E-07
1.7491E-08	-6.6300E-08	5.1065E-07	7.9306E-07
-9.6952E-08	1.5689E-08	1.4518E-07	8.8124E-08
-1.2717E-07	-3.5536E-08	1.7508E-07	2.2004E-06
-9.8430E-08	-5.4859E-08	2.3446E-06	9.3502E-07
-1.2620E-07	4.2268E-08	1.0164E-06	-3.8227E-07
-7.9315E-08	7.3732E-08	-2.8831E-07	5.2766E-07
-2.4250E-08	9.4390E-08	1.4999E-06	2.0047E-06
7.5034E-08	8.5724E-08	1.4890E-06	-1.1578E-06
1.7967E-08	8.0123E-08	-9.7224E-07	9.7492E-07
3.9852E-08	6.7153E-08	7.3242E-07	8.1472E-07
1.1765E-07	9.8555E-08	-7.3423E-07	2.3188E-06
1.0686E-07	4.7349E-08	3.1086E-06	2.3638E-06
1.1982E-07	2.7123E-08	1.5624E-06	-6.1522E-07
6.0697E-08	-5.6231E-08	6.6182E-07	1.8464E-07
4.7759E-08	-8.7568E-09	-6.7831E-07	4.8784E-07
-2.8050E-08	-7.3190E-08	1.8930E-07	3.1930E-06
-3.8947E-08	-1.1284E-07	3.2340E-06	2.1705E-06
-5.9201E-08	-4.3026E-08	2.3308E-06	-8.4577E-07
-6.3294E-08	6.8635E-09	1.3550E-07	3.7815E-07
-1.2347E-07	7.2324E-08	1.2601E-06	7.5730E-07
-8.4508E-08	1.0851E-07	5.1176E-07	1.1011E-06
2.0067E-08	1.2573E-07	2.4043E-06	7.7416E-07
7.4799E-08	1.5324E-07	1.2713E-07	-8.3320E-07
1.4385E-07	9.9849E-08	8.4590E-08	1.7539E-06
1.9835E-07	5.1441E-08	1.2402E-06	1.1404E-06
1.0618E-07	1.1220E-08	1.2856E-06	1.0585E-06
1.3180E-07	-2.2859E-08	9.4180E-07	7.4741E-07
4.1456E-08	-6.4321E-08	1.6266E-06	1.6252E-06
3.8353E-08	-1.0318E-07	2.5051E-06	-1.8327E-07
5.0557E-08	-5.1869E-08	4.7409E-07	-1.1015E-06
5.5863E-08	-3.5555E-08	-9.1464E-07	8.0259E-07
7.0465E-08	-4.7589E-08	1.3721E-06	2.3399E-06
-4.2820E-08	-7.5569E-08	2.0721E-06	-5.5923E-07
3.0411E-08	-9.1935E-08	-7.8133E-07	1.2813E-07
-9.5150E-09	-6.7268E-08	1.0208E-06	1.9423E-06
-9.4706E-09	-1.4552E-07	1.2256E-06	-2.6564E-07
-3.2401E-08	-7.5048E-08	-4.6387E-07	7.8352E-07
-5.4991E-08	-1.2439E-07	3.7751E-07	1.2128E-06
-1.2293E-07	-6.8826E-08	1.7784E-08	2.3084E-06
-7.1205E-08	-9.0018E-08	3.2018E-06	1.5987E-06
-1.2703E-07	-4.2027E-09	1.6609E-07	-1.4882E-06
-1.7760E-07	4.5568E-08	-3.0961E-07	2.4584E-06
-6.5294E-08	3.0451E-08	1.5479E-06	2.8619E-07
-9.8765E-08	1.1326E-07	-8.7928E-07	1.6802E-06
-5.1934E-08	6.5411E-08	1.8016E-06	2.5413E-06
2.6631E-08	4.4970E-08	1.8112E-06	1.0450E-06
-1.3142E-08	8.4943E-08	1.6158E-06	2.1384E-07
-3.0642E-08	2.9558E-08	-9.6112E-08	6.4931E-07
2.2077E-08	9.9692E-09	1.0225E-06	1.8533E-06
5.5237E-09	4.0545E-08	1.2146E-06	1.3055E-06
2.8781E-08	3.2545E-08	2.0925E-06	9.7066E-07
-4.7161E-08	2.2692E-08	6.5298E-07	-5.0491E-07
9.1179E-09	5.1356E-08	-2.6018E-07	1.3371E-06
-3.2669E-08	1.0634E-08	6.8791E-07	1.7570E-06
4.1011E-08	1.7944E-08	1.2923E-06	1.8770E-06
-7.1106E-09	2.3457E-08	1.7347E-06	1.2318E-06
6.2607E-09	-2.7918E-08	1.8070E-06	7.9736E-07
-1.8418E-09	-1.0990E-09	1.1293E-06	-9.8073E-08
1.0295E-08	3.7279E-08	5.6511E-08	8.0712E-07
