jMRUI Data Textfile

Filename: Export_to_jmrui.txt

PointsInDataset: 2048
DatasetsInFile: 1
SamplingInterval: 0.250000
ZeroOrderPhase: 0E0
BeginTime: 0E0
TransmitterFrequency: 1.2326E8
MagneticField: 2.8936E0
TypeOfNucleus:  
NameOfPatient:  
DateOfExperiment:  
Spectrometer:  
AdditionalInfo: 
SignalNames:  


Signal and FFT
sig(real)	sig(imag)	fft(real)	fft(imag)
Signal 1 out of 1 in file
2.5873E-06	2.7543E-07	7.7393E-08	1.2951E-06
2.2822E-06	-8.6074E-07	6.6107E-07	8.9416E-07
1.4479E-06	-1.3672E-06	2.3701E-07	1.7360E-06
8.7565E-07	-1.6689E-06	2.1101E-06	1.4208E-06
2.5134E-10	-1.5972E-06	1.1596E-06	4.5525E-07
-4.8252E-07	-1.0738E-06	1.5986E-06	6.2453E-07
-5.4765E-07	-5.1581E-07	3.5815E-07	5.4793E-07
-3.9181E-07	-5.9333E-08	1.8830E-06	1.7757E-06
1.6523E-08	3.8319E-08	1.5288E-06	2.7141E-08
2.8088E-07	-8.8948E-08	1.6368E-06	1.3842E-06
3.8950E-07	-4.3039E-07	2.1080E-06	-3.1653E-07
1.4702E-07	-6.6845E-07	1.0522E-06	6.0125E-07
-3.6372E-08	-7.6895E-07	1.9235E-06	-3.0306E-08
-3.7694E-07	-6.1979E-07	1.1370E-06	2.9803E-07
-5.6565E-07	-3.9258E-07	1.9157E-06	-7.3728E-07
-5.1149E-07	-1.0043E-07	-9.4945E-07	-4.6584E-07
-4.1248E-07	5.8826E-08	5.9683E-07	2.6926E-06
-2.8043E-07	2.8495E-08	3.0874E-06	1.0698E-06
-9.7636E-08	-7.2486E-08	2.4571E-06	-1.1138E-06
-9.7527E-08	-2.2367E-07	6.6700E-08	-1.3817E-06
-2.3195E-07	-3.1022E-07	-2.8896E-07	8.7431E-07
-4.4966E-07	-1.8422E-07	1.0830E-06	7.5090E-07
-5.8054E-07	1.8069E-08	6.0828E-07	4.3944E-07
-5.7900E-07	2.0069E-07	7.4192E-07	6.3261E-07
-3.1217E-07	3.8005E-07	1.7541E-07	8.3400E-07
-1.1289E-07	2.7880E-07	8.8288E-07	1.7774E-06
1.1901E-07	2.4586E-07	1.1232E-06	1.2108E-06
1.5258E-07	8.7789E-08	1.4118E-06	2.2173E-06
2.9291E-08	-9.5126E-08	2.9156E-06	1.3954E-06
-1.2996E-07	-6.3292E-08	2.8123E-06	3.9179E-07
-2.8507E-07	-5.2896E-09	2.1132E-06	-7.3670E-07
-3.7792E-07	1.5202E-07	9.5414E-07	5.4206E-07
-4.2019E-07	3.9102E-07	2.6654E-06	4.3083E-07
-2.1658E-07	5.4612E-07	2.0386E-06	-5.7114E-07
3.0390E-08	5.9093E-07	1.9456E-06	-1.4217E-06
1.9930E-07	5.4049E-07	-6.5711E-07	-9.5697E-07
2.8387E-07	3.6067E-07	8.9984E-07	1.3614E-06
3.1764E-07	2.6870E-07	1.4131E-06	-8.2107E-08
2.9751E-07	1.2188E-07	1.5697E-06	3.0872E-07
2.8787E-07	8.8465E-08	1.3358E-06	-1.1398E-06
2.3973E-07	2.2533E-08	2.2641E-08	-4.6266E-07
2.4799E-07	1.1869E-07	-3.7830E-08	2.4123E-07
3.2537E-07	5.2652E-08	7.9376E-07	1.1633E-06
3.6038E-07	-1.0837E-07	1.6805E-06	-3.6636E-07
2.7950E-07	-1.7604E-07	-3.4378E-07	-7.7809E-07
1.7542E-07	-1.8198E-07	-5.0904E-07	1.2145E-06
3.7750E-08	-2.9724E-07	8.2857E-07	1.2438E-06
3.7971E-08	-2.3336E-07	7.8611E-07	1.0548E-06
-2.5011E-08	-2.0007E-07	1.2694E-06	8.3756E-07
1.1577E-08	-4.0639E-08	9.8106E-07	1.1612E-06
6.8324E-08	-1.0425E-07	2.8131E-06	4.2194E-07
8.2290E-08	-5.2499E-08	6.3995E-07	-1.6365E-06
4.9803E-08	-9.1077E-08	-3.4466E-08	4.4542E-07
1.9785E-08	-1.7303E-07	3.1369E-07	-2.7063E-08
-1.7525E-07	-2.1651E-07	-9.0108E-10	7.3104E-07
-1.6041E-07	-1.7739E-07	3.4796E-08	7.6225E-07
-2.6157E-07	-9.2554E-08	6.1896E-07	1.5891E-06
-1.6477E-07	-2.8745E-08	8.4393E-07	6.8525E-07
-3.2205E-08	7.3462E-08	8.3782E-07	1.4495E-06
6.6592E-08	2.5188E-08	1.3420E-06	4.5854E-07
1.2463E-07	-4.0376E-08	6.1748E-07	9.2906E-07
8.7286E-08	-1.6074E-07	1.4624E-06	7.4360E-07
4.0368E-08	-2.8475E-07	8.8433E-07	-1.2258E-07
-6.8795E-08	-2.4526E-07	-2.6843E-07	6.8109E-07
-2.1002E-07	-2.8668E-07	1.0925E-06	1.5422E-06
-3.6681E-07	-1.7545E-07	5.3295E-07	3.8675E-07
-3.1650E-07	4.0022E-08	1.0259E-06	1.7517E-06
-3.0583E-07	1.0956E-07	1.0329E-06	1.2594E-07
-1.8950E-07	2.1743E-07	7.7070E-07	1.8573E-06
-1.5304E-07	2.3420E-07	1.9514E-06	-7.7003E-08
-7.4919E-08	2.0464E-07	1.5834E-07	5.8996E-07
-2.5906E-08	2.0626E-07	6.9522E-07	3.0299E-07
-1.4117E-08	1.4756E-07	-2.0848E-07	1.9775E-06
6.7785E-08	1.5027E-07	2.3711E-06	1.1678E-06
3.2311E-08	1.9773E-07	4.7138E-07	4.3195E-07
1.2690E-07	1.3835E-07	1.7621E-06	9.6870E-07
1.2002E-07	9.5007E-08	4.5914E-07	-3.4667E-07
1.7399E-07	4.3541E-08	-9.0817E-08	1.1748E-06
5.9985E-08	-3.6651E-08	9.8419E-07	1.7781E-06
-1.4853E-08	-1.3350E-08	1.5390E-06	3.5067E-07
-1.1495E-07	3.5656E-09	3.7496E-09	1.0576E-06
-1.4409E-07	7.7629E-08	1.6935E-06	1.0591E-06
-3.9072E-08	2.1396E-07	-6.0185E-09	5.0018E-07
1.1063E-07	2.7335E-07	1.4310E-06	1.5787E-06
1.5118E-07	1.6645E-07	1.2170E-07	2.8687E-09
3.1678E-07	1.4529E-08	2.9869E-07	2.4505E-06
2.9195E-07	-4.8589E-08	1.4954E-06	1.2325E-06
1.3584E-07	-1.7961E-07	1.2602E-06	1.6640E-06
2.6498E-08	-2.4013E-07	1.8182E-06	4.3309E-07
-1.6982E-08	-2.2806E-07	4.3904E-07	5.5703E-07
-1.0493E-07	-1.2522E-07	3.6377E-07	9.7357E-07
-7.0787E-08	-6.7732E-08	5.5940E-08	2.2968E-06
-8.2471E-08	7.3808E-08	2.2976E-06	2.3808E-06
1.0108E-07	1.5953E-07	1.5073E-06	7.7894E-07
1.0306E-07	7.1583E-08	2.0548E-06	2.2029E-06
2.2091E-07	9.9420E-09	2.7293E-06	-5.9460E-07
1.3887E-07	-8.6591E-08	3.8041E-08	6.8154E-07
5.4466E-08	-1.0928E-07	2.2760E-06	1.7748E-06
-1.5494E-08	-1.4473E-07	1.1287E-06	-4.2615E-07
3.8893E-08	-1.5995E-07	1.2835E-06	2.1499E-06
-9.6458E-08	-3.6829E-08	3.1198E-06	-5.6532E-07
-1.2217E-08	-4.2991E-08	2.7756E-08	-9.2942E-07
-1.2204E-07	-8.7802E-08	-1.4364E-07	7.0442E-07
-9.1100E-08	-4.5032E-08	5.2240E-07	1.9314E-06
-7.7515E-08	-1.4562E-07	2.2171E-06	7.6756E-07
-7.9800E-08	-1.1015E-07	6.9150E-07	1.2839E-07
-1.5567E-07	-1.0703E-07	1.3185E-06	3.0905E-07
-1.4625E-07	-6.7220E-08	-5.1692E-07	-1.7512E-07
-1.6880E-07	-2.2532E-08	8.7740E-08	2.1010E-06
-9.9380E-08	6.0070E-08	1.1650E-06	1.2543E-06
-5.2405E-08	1.2984E-07	1.2237E-06	6.9839E-07
7.1592E-08	8.2039E-08	-6.7849E-07	3.1487E-07
-2.4031E-08	3.6003E-08	2.2960E-07	3.5562E-06
2.0670E-08	-1.2566E-08	2.5569E-06	1.1789E-06
-4.9392E-09	4.3813E-09	3.8942E-07	1.3611E-06
-5.7741E-08	3.5066E-08	2.1733E-06	2.1063E-06
-1.0114E-07	2.7213E-08	2.2075E-06	4.6907E-07
-4.0017E-08	8.1820E-08	1.1058E-06	8.4078E-09
2.7517E-08	8.1471E-08	4.2160E-07	1.0928E-06
9.8235E-08	1.0901E-07	1.3611E-06	1.1968E-06
7.9246E-08	1.0186E-07	1.0142E-06	8.8423E-07
1.2655E-07	3.8755E-08	9.5776E-07	1.1654E-06
1.6660E-07	-7.3446E-08	1.7011E-06	1.6107E-06
1.0372E-07	-5.8607E-08	1.9320E-06	-4.4821E-07
2.3965E-08	-1.3463E-07	-6.2858E-07	8.1276E-07
8.9340E-09	-7.6906E-08	1.9120E-06	1.7484E-06
-3.2624E-08	-1.0691E-08	4.3997E-07	-2.8289E-07
-5.6019E-08	-2.4523E-08	-2.2158E-07	2.1404E-06
-1.3908E-08	4.3820E-08	1.7020E-06	2.6968E-06
-2.1135E-08	3.6971E-08	3.4566E-06	9.8590E-07
-2.7948E-08	9.9185E-08	1.3025E-06	-1.2039E-06
9.8076E-08	7.8715E-08	4.0116E-07	5.7187E-07
9.6194E-08	7.9023E-08	3.6434E-07	-3.2834E-08
1.8670E-07	6.0334E-09	-3.0424E-07	1.7989E-06
1.8651E-07	-6.1274E-09	1.9250E-06	1.4023E-06
1.2067E-07	-1.4080E-07	6.5741E-07	-2.5793E-07
1.6872E-07	-1.2508E-07	-4.7506E-07	1.2503E-06
9.5495E-08	-1.3603E-07	1.0718E-06	1.8555E-06
7.4413E-08	-1.2861E-07	7.2005E-07	2.8797E-07
-8.2604E-09	-1.2753E-07	-6.9541E-07	1.6056E-06
-3.7507E-08	-3.9181E-08	9.3262E-07	2.7842E-06
-6.4733E-08	-3.5553E-08	1.9785E-06	1.2334E-06
-9.6188E-08	-4.8810E-08	2.3633E-07	3.8179E-07
-1.1572E-07	-3.2034E-08	-1.5827E-07	2.4179E-06
-7.9024E-08	-6.3089E-08	1.7096E-06	2.3413E-06
-5.1458E-08	-5.3904E-08	1.4070E-06	8.4444E-07
-2.9618E-08	-2.0039E-09	-1.9082E-07	1.4619E-06
-2.8677E-08	-6.5469E-08	1.2008E-06	3.2723E-06
-6.3240E-08	2.7014E-10	2.1874E-06	1.1801E-06
-9.6101E-08	4.5199E-08	4.5158E-07	2.1051E-06
-7.8349E-08	4.8096E-08	2.8474E-06	2.4144E-06
-7.8236E-08	4.5598E-08	1.8158E-06	2.1395E-07
-8.4770E-08	-5.5806E-09	9.1410E-07	1.6008E-06
-2.1862E-08	6.7208E-08	1.9906E-06	1.4936E-06
-2.0377E-09	1.1408E-07	1.6623E-06	6.1370E-07
8.4105E-09	1.2983E-07	7.6391E-07	8.5048E-07
2.5084E-08	8.5764E-08	9.0029E-07	1.5177E-06
5.8419E-08	8.0844E-08	9.6477E-07	1.7597E-06
1.2061E-08	-1.4394E-08	2.0255E-06	2.1717E-06
3.4311E-08	2.6936E-08	2.2641E-06	2.9098E-07
2.9212E-08	1.0738E-08	2.4962E-07	8.3690E-07
2.0689E-08	-5.9105E-08	1.6014E-06	2.0227E-06
-6.8116E-09	-2.9540E-08	1.4139E-06	4.8384E-07
5.5248E-09	-1.0325E-08	4.5398E-07	1.7969E-06
-8.5702E-08	-1.3379E-08	2.1516E-06	1.8201E-06
-1.0193E-07	4.3448E-08	1.3042E-06	3.3252E-07
-1.4624E-07	8.7317E-08	2.8942E-07	1.9640E-06
-9.4556E-08	1.8800E-07	2.6131E-06	2.1975E-06
-3.6920E-10	1.6786E-07	1.6671E-06	-2.3094E-07
8.6214E-08	1.3002E-07	1.4740E-07	1.7104E-06
4.3205E-08	7.9543E-08	2.0407E-06	1.9622E-06
1.5530E-07	5.5237E-08	1.9671E-06	1.0492E-06
9.5726E-08	-1.2056E-08	1.8652E-06	2.9842E-07
1.3912E-07	-8.7499E-08	4.6408E-07	2.6219E-07
9.5259E-08	-6.5879E-08	1.4516E-07	1.1355E-06
6.7594E-08	-8.7689E-08	4.4191E-08	2.5172E-06
5.4707E-08	-1.3331E-09	2.3807E-06	2.8597E-06
3.1379E-08	-1.8525E-08	2.5167E-06	8.8085E-07
1.4251E-08	-3.0148E-08	1.7957E-06	2.8769E-07
5.5728E-08	-2.1092E-09	2.2269E-07	3.1202E-07
3.1837E-08	8.8710E-09	3.9751E-07	2.1185E-06
1.4217E-07	-4.0249E-08	1.5488E-06	2.0444E-06
6.4278E-08	-7.7038E-08	2.1728E-06	9.6590E-07
1.2559E-08	-1.2798E-07	-8.3718E-08	2.6814E-07
-8.6823E-08	-1.1479E-07	5.2958E-07	3.3597E-06
-7.2789E-08	-9.4604E-08	2.4052E-06	1.3471E-06
-9.0794E-08	-7.7683E-08	6.7770E-07	1.8982E-06
-1.2623E-07	1.4957E-08	2.4041E-06	1.8846E-06
-1.2426E-07	2.1728E-08	1.1071E-06	1.1168E-06
-1.1429E-07	1.2204E-07	1.8852E-06	2.1490E-06
-1.0081E-07	8.5701E-08	1.8847E-06	8.2102E-07
-2.0698E-08	1.2110E-07	7.7322E-07	1.4640E-06
-3.3587E-09	9.5223E-08	1.5560E-06	2.5356E-06
5.9480E-08	9.6663E-08	2.6255E-06	1.7172E-06
2.2021E-08	3.4149E-08	2.0706E-06	1.4056E-06
5.7162E-08	5.4931E-08	2.9698E-06	9.0990E-07
3.8039E-08	1.3303E-08	1.0006E-06	-1.6578E-07
4.5590E-08	-5.8484E-09	1.4983E-06	2.4715E-06
-1.8348E-08	4.4140E-08	3.3017E-06	-6.9066E-08
3.8256E-08	3.7822E-08	1.6599E-07	-3.0262E-07
-3.2180E-08	-4.7361E-09	8.7952E-07	1.6609E-06
1.3278E-08	-1.5892E-08	1.4022E-06	1.0131E-06
-1.2034E-09	5.8184E-08	1.0813E-06	8.3441E-07
-1.8750E-08	-7.2752E-08	3.7907E-07	1.0967E-06
-2.5888E-08	-1.1961E-08	3.3408E-07	2.1465E-06
-5.4910E-08	-2.1015E-08	1.2793E-06	3.2865E-06
