jMRUI Data Textfile

Filename: Export_to_jmrui.txt

PointsInDataset: 2048
DatasetsInFile: 1
SamplingInterval: 0.250000
ZeroOrderPhase: 0E0
BeginTime: 0E0
TransmitterFrequency: 1.2326E8
MagneticField: 2.8936E0
TypeOfNucleus:  
NameOfPatient:  
DateOfExperiment:  
Spectrometer:  
AdditionalInfo: 
SignalNames:  


Signal and FFT
sig(real)	sig(imag)	fft(real)	fft(imag)
Signal 1 out of 1 in file
8.7410E-07	-7.7948E-07	2.3005E-06	1.2219E-07
6.0589E-07	-8.6311E-07	1.1714E-06	-6.9203E-07
2.3735E-07	-1.0452E-06	3.7368E-07	-9.3387E-07
4.3963E-08	-9.9513E-07	4.7660E-07	2.9715E-07
-3.8960E-07	-8.2554E-07	8.9476E-07	-3.6536E-07
-4.7553E-07	-5.3261E-07	1.1003E-06	-2.5603E-08
-5.9194E-07	-1.0787E-07	6.9933E-07	-8.6712E-07
-3.8584E-07	3.3782E-08	1.1179E-06	1.7630E-07
-6.2319E-08	2.1776E-07	9.3455E-07	-1.5580E-06
8.2041E-08	4.2451E-08	1.0572E-08	2.6154E-07
3.0687E-07	-1.8978E-07	1.7786E-06	-3.9125E-07
1.8313E-07	-3.7793E-07	1.0400E-06	-1.2370E-06
4.5653E-08	-4.8768E-07	3.5751E-07	-1.1462E-06
-2.2520E-07	-3.5714E-07	6.8627E-07	-5.9237E-07
-3.4255E-07	-1.2510E-07	2.1055E-07	-1.0619E-06
-4.9147E-07	2.8991E-09	8.9901E-07	-2.8317E-07
-2.8088E-07	8.2184E-08	1.1375E-08	-1.5098E-06
-1.7946E-07	1.6700E-07	7.3296E-07	5.6769E-07
-9.8170E-08	-1.4487E-08	1.0435E-06	-2.1277E-06
-1.0873E-07	-5.7656E-08	-3.4328E-07	-1.5752E-08
-2.2808E-07	-9.3524E-08	1.0642E-06	-1.3815E-06
-3.1681E-07	-2.7397E-08	7.9362E-09	-1.1691E-07
-3.5476E-07	6.8563E-08	1.6073E-06	-2.2157E-06
-3.7188E-07	2.0580E-07	-1.9107E-06	-1.6051E-06
-1.3994E-07	2.6029E-07	-6.5660E-07	1.7377E-07
-1.3639E-09	2.7164E-07	-2.0194E-07	1.2259E-06
1.2334E-07	1.1223E-07	2.6840E-06	-4.6254E-07
1.5791E-07	2.3744E-08	-3.4418E-07	-2.2644E-06
4.2305E-08	-7.4299E-08	-2.9121E-07	-3.1373E-07
-1.2131E-07	-1.3177E-07	-9.7319E-08	-1.6608E-07
-2.5927E-07	2.7996E-08	1.3671E-06	-5.3222E-07
-4.3010E-07	1.6516E-07	-2.0225E-07	-2.2053E-06
-2.7588E-07	3.3928E-07	-1.2343E-06	-8.2320E-07
-1.4765E-07	4.7506E-07	-1.3288E-06	2.4957E-07
5.1674E-08	4.3280E-07	2.3225E-07	1.1179E-06
2.1204E-07	3.8524E-07	6.4856E-07	4.9628E-09
2.6400E-07	1.6917E-07	8.2209E-07	2.5218E-08
2.5363E-07	1.6110E-07	7.3911E-07	-7.3937E-07
2.3831E-07	5.0596E-09	6.8172E-07	-9.1592E-07
1.4415E-07	-8.5891E-09	-5.5615E-07	-1.6997E-06
1.1516E-07	7.2940E-08	-1.0598E-06	2.6252E-07
2.0054E-07	8.7483E-09	5.2555E-08	-3.3659E-07
2.5297E-07	-3.4665E-08	-1.0932E-06	3.6232E-07
2.5732E-07	-8.1752E-08	3.8208E-07	9.4298E-07
1.9982E-07	-1.2433E-07	3.4835E-07	4.8834E-07
1.6658E-07	-2.0077E-07	1.0240E-06	1.7036E-07
6.3595E-08	-1.4752E-07	2.7558E-07	-3.8350E-08
6.9513E-08	-1.7308E-07	9.8216E-07	-3.2260E-07
3.2808E-08	-1.1594E-07	-1.0472E-06	7.3916E-08
7.5456E-08	-1.1802E-07	1.9622E-06	1.9760E-06
1.0221E-07	-2.6796E-08	1.5081E-06	-1.6230E-06
1.1125E-07	-1.1488E-07	6.8049E-07	3.6803E-07
1.0347E-07	-1.1973E-07	1.3317E-06	-1.5924E-06
7.5044E-09	-2.1153E-07	-1.0242E-07	-2.0106E-07
-5.0410E-08	-2.4680E-07	9.9612E-07	-1.1855E-06
-1.1528E-07	-1.8443E-07	-7.2912E-07	-3.2794E-07
-1.8634E-07	-1.2908E-07	9.4282E-07	1.1703E-07
-1.5256E-07	-2.9596E-08	5.4305E-07	-8.9852E-07
-1.0569E-07	5.3856E-08	-3.3327E-07	-8.2893E-07
4.8058E-08	5.2527E-08	-1.5996E-07	8.3904E-07
5.7955E-08	3.0140E-08	1.5936E-06	-3.9499E-07
3.6645E-08	-5.6848E-09	-2.5418E-07	-1.0353E-06
4.4453E-08	-1.6935E-07	7.1590E-08	3.3104E-07
-7.5513E-09	-2.0263E-07	7.2535E-07	-2.5460E-07
-1.7941E-07	-1.7221E-07	-2.9284E-07	-2.3143E-07
-2.8142E-07	-1.5914E-07	9.9862E-07	1.4505E-06
-3.0612E-07	-5.5040E-08	2.3785E-06	-1.1228E-06
-3.0278E-07	6.4991E-08	2.0312E-07	-1.0747E-06
-3.0398E-07	1.3789E-07	1.3619E-06	-1.0480E-06
-1.7928E-07	1.2572E-07	-4.4662E-07	-2.1760E-06
-1.4840E-07	1.7576E-07	-1.1296E-06	-2.5890E-07
-3.3861E-08	2.2980E-07	-1.2988E-07	2.3837E-07
3.1102E-08	2.7039E-07	3.0577E-07	5.9586E-08
6.0449E-08	2.0522E-07	6.2459E-07	-5.5041E-07
1.3138E-07	9.2963E-08	-7.5553E-07	-9.5234E-07
2.1383E-07	6.7046E-08	-5.6391E-07	1.1199E-06
1.7276E-07	-1.6948E-08	8.7484E-07	1.4846E-07
8.2066E-08	-1.6496E-08	-7.9402E-08	5.0833E-07
1.0692E-07	-7.4707E-09	1.7314E-06	6.4588E-07
-2.6744E-08	-7.0389E-08	1.1215E-06	-1.5080E-06
-1.4175E-07	-1.8164E-08	-7.5859E-07	-4.4609E-07
-8.6565E-08	9.9846E-08	7.9041E-07	8.5115E-07
-5.6710E-08	1.4048E-07	1.1604E-06	-7.6585E-07
8.3221E-08	1.3455E-07	5.9259E-07	-5.7808E-07
1.1597E-07	1.2467E-07	1.9455E-07	-1.4092E-06
2.3341E-07	8.6107E-08	-9.0341E-07	-1.3224E-07
2.6044E-07	7.1399E-09	6.1159E-08	2.6910E-07
2.0291E-07	-1.0979E-07	2.4626E-07	3.7675E-07
6.3036E-08	-1.1247E-07	4.4022E-07	-1.7222E-07
-3.4673E-08	-1.5001E-07	2.0865E-07	5.3091E-07
-6.2876E-08	-8.8999E-08	1.0096E-06	-2.1042E-07
-1.3761E-08	-3.5385E-08	1.8827E-07	5.6203E-08
-1.2405E-08	7.0991E-08	1.0025E-06	-1.9873E-07
1.1729E-08	9.1348E-08	1.8504E-07	-4.0564E-07
3.0943E-08	2.8217E-08	1.6717E-07	-3.1740E-07
1.3761E-07	-4.7231E-08	-4.4286E-07	8.2899E-07
1.2958E-07	-2.2058E-08	1.6864E-06	1.1367E-06
1.0181E-07	-1.0840E-07	1.5935E-06	-3.9610E-07
4.9067E-08	-1.1852E-07	1.5614E-06	-6.6251E-07
2.2195E-08	-1.6363E-07	7.9010E-07	-1.7412E-06
-2.2922E-08	-1.3916E-07	-8.0687E-07	-8.3885E-07
-5.7595E-08	-7.5350E-08	5.0665E-07	6.1491E-07
-7.1234E-08	1.8188E-08	4.3893E-07	-1.5079E-06
-1.8051E-08	-6.2924E-08	-1.4976E-06	1.1574E-06
-2.4209E-08	-4.1466E-08	2.6727E-06	1.2168E-06
-1.1689E-07	-6.1748E-08	8.4816E-07	-1.8580E-06
-1.2738E-07	-4.3657E-08	2.1676E-08	-6.0567E-08
-1.3789E-07	2.8158E-08	4.8022E-07	-3.8739E-08
-1.1749E-07	6.7235E-08	1.5168E-06	-2.0417E-08
-9.4337E-08	8.0589E-08	4.1096E-07	-1.8820E-06
-5.0501E-08	5.8326E-08	-4.9566E-07	5.3060E-07
-3.0340E-08	7.8781E-08	1.8074E-06	-6.0615E-07
-4.1173E-09	7.2579E-08	-3.7682E-07	-1.4004E-06
8.4670E-08	-6.2960E-10	1.6741E-07	-3.6788E-07
-7.6746E-09	-1.3878E-08	-1.0117E-06	-5.2612E-07
-4.0797E-08	-8.5634E-09	6.5466E-07	1.4047E-06
-8.4927E-08	5.5015E-08	9.2911E-07	-1.3122E-06
-5.5785E-08	1.3655E-07	-4.6904E-07	3.2546E-07
1.7469E-08	1.0505E-07	6.1929E-07	-6.0950E-07
3.4532E-08	1.4929E-07	-8.7466E-07	9.4073E-07
4.7764E-08	8.0946E-08	2.4139E-06	7.0943E-07
9.9658E-09	-4.8077E-08	4.7279E-07	-1.8455E-06
8.7704E-08	1.3396E-08	-2.7802E-07	2.3489E-07
1.0938E-07	-2.3320E-08	1.2180E-06	-4.8012E-07
5.7278E-08	-4.5197E-08	-6.8150E-07	-1.6227E-06
-4.1991E-08	-4.8979E-08	-1.3007E-06	1.1803E-06
-6.0194E-08	-4.8004E-08	1.0356E-06	7.5424E-07
-6.7406E-08	-1.2100E-08	1.6934E-07	5.8478E-07
-6.5138E-08	3.4445E-08	2.0283E-06	3.3265E-07
-5.5489E-08	8.2540E-08	2.5973E-07	-1.5605E-06
1.0984E-08	1.3348E-07	-3.4122E-07	2.1593E-07
4.0451E-08	7.2654E-08	-9.2007E-08	2.6189E-07
9.6203E-08	7.9244E-08	7.0049E-07	1.3877E-06
8.7151E-08	7.0564E-08	1.9892E-06	-1.9189E-07
1.6944E-07	5.5696E-08	5.9734E-07	-9.2115E-07
2.0657E-07	-6.2502E-08	2.8401E-07	-3.9421E-07
6.7583E-08	-9.7003E-08	3.1922E-08	-1.2523E-07
1.1601E-07	-1.9692E-07	4.0034E-07	4.9373E-07
2.5648E-09	-1.4577E-07	1.0836E-06	4.9161E-08
-2.8833E-08	-1.5077E-07	4.5307E-07	-5.7911E-07
2.7790E-08	-1.0012E-07	8.2138E-08	6.5775E-07
-4.6155E-08	-7.6676E-08	2.2174E-06	2.0686E-07
-1.9273E-08	-1.1122E-10	4.6821E-07	-2.1348E-06
-4.8235E-08	-6.8837E-08	-5.0450E-07	2.4811E-07
-1.1424E-07	-9.3130E-08	7.2610E-07	-9.8585E-07
-1.0122E-07	-2.5958E-09	-1.5910E-06	-5.7054E-09
-7.1499E-08	-1.2114E-07	4.7133E-07	1.4506E-06
-2.7764E-08	3.7303E-08	5.0255E-07	3.6475E-07
-6.6171E-08	-4.7961E-10	8.9620E-07	6.5072E-07
-7.2173E-08	9.6528E-09	5.3369E-07	1.1363E-07
-6.1884E-08	1.5821E-08	9.0927E-07	7.4151E-07
-5.9549E-08	4.3287E-08	9.1937E-07	1.1777E-08
-6.6818E-08	1.0420E-07	9.0907E-07	6.6904E-07
-2.9605E-08	5.1293E-08	1.4566E-06	-1.7789E-08
2.4888E-08	6.9608E-08	1.1502E-06	7.1311E-08
-3.4125E-08	7.8868E-08	1.4149E-06	-8.1359E-07
2.7976E-08	3.2598E-08	-2.4734E-07	-1.8614E-07
7.2087E-08	-2.8786E-09	1.7700E-06	8.7292E-07
2.8599E-08	-2.4575E-08	1.1415E-06	-1.6822E-06
5.3667E-08	-2.8823E-08	-5.0992E-07	1.8339E-07
3.5338E-08	3.2464E-08	8.3305E-07	6.3095E-07
1.4324E-09	-4.2802E-08	1.3685E-06	1.0000E-06
1.1415E-08	-7.5564E-08	2.6249E-06	-7.4459E-07
-6.3237E-08	-9.2492E-08	4.2256E-07	-1.0553E-06
-1.0551E-07	-7.2822E-09	1.6231E-06	-1.3685E-07
-1.2059E-07	7.8213E-09	8.6731E-07	-1.6742E-06
-1.1662E-07	4.3777E-08	2.7655E-08	-6.6351E-07
-9.1371E-08	8.7797E-08	1.0804E-07	-2.3982E-09
-1.4105E-08	9.6378E-08	1.6078E-06	2.5303E-07
9.4671E-08	1.2327E-07	9.3004E-07	-1.7794E-06
9.9104E-08	1.3601E-07	-1.8765E-07	-2.6048E-07
9.6251E-08	8.5144E-08	6.7886E-07	-7.0954E-07
1.1056E-07	2.6400E-08	-3.2633E-07	3.1978E-08
1.2585E-07	-7.0216E-08	1.2553E-06	3.8042E-07
5.1543E-08	-8.1304E-08	1.1790E-06	-6.7199E-07
2.6952E-08	-7.0533E-08	8.6297E-07	-1.2546E-06
4.4659E-08	-4.5232E-08	-3.7478E-07	-7.2158E-07
-1.5917E-08	-1.0575E-07	9.5936E-07	-2.5039E-07
1.4786E-08	-5.3355E-08	-3.3159E-07	-1.8784E-06
-2.8542E-09	-5.3740E-09	-1.5882E-06	4.5090E-07
1.0734E-08	-1.6043E-08	4.1006E-07	1.3835E-06
1.2637E-07	-6.9286E-08	1.3335E-06	8.5955E-08
3.5533E-08	-6.5593E-08	2.0666E-07	-7.9655E-07
9.8958E-08	-7.7368E-08	-6.0431E-07	4.7808E-07
-1.3377E-08	-1.1929E-07	7.5454E-07	1.4637E-06
-1.5005E-07	-1.0749E-07	1.7210E-06	-9.7338E-09
-1.0844E-07	-5.5470E-08	2.1805E-07	-6.0792E-08
-1.5205E-07	-8.6447E-08	1.3643E-06	1.0042E-06
-1.0745E-07	4.4102E-08	1.9529E-06	-1.4927E-07
-6.5412E-08	6.7876E-08	1.8736E-06	-1.2228E-06
-6.2715E-08	9.6373E-08	-3.4079E-07	-1.3702E-06
-5.7947E-08	9.4818E-08	9.3191E-07	9.4448E-07
-5.0292E-10	1.2066E-07	1.8103E-06	-1.6706E-06
3.0773E-08	6.1468E-08	-4.8876E-07	-1.3126E-06
6.9045E-08	9.7802E-08	-4.1669E-07	-1.0108E-07
5.6901E-08	3.0577E-08	4.8091E-07	5.3421E-07
9.4628E-09	-1.4353E-08	7.6314E-07	-4.6142E-07
3.6083E-08	4.1031E-08	5.1937E-07	7.5272E-08
3.5165E-08	5.0274E-08	9.6374E-07	-1.1029E-06
6.1657E-08	6.5506E-08	-1.1307E-06	-7.5983E-07
2.8552E-08	-2.0811E-08	-3.6518E-07	1.3764E-06
-5.0406E-08	2.3866E-08	1.1642E-06	5.4088E-07
3.3555E-08	3.6745E-08	2.0513E-07	3.3632E-07
1.0343E-08	-1.3129E-08	1.4808E-06	8.8047E-07
