jMRUI Data Textfile

Filename: Export_to_jmrui.txt

PointsInDataset: 2048
DatasetsInFile: 1
SamplingInterval: 0.250000
ZeroOrderPhase: 0E0
BeginTime: 0E0
TransmitterFrequency: 1.2326E8
MagneticField: 2.8936E0
TypeOfNucleus:  
NameOfPatient:  
DateOfExperiment:  
Spectrometer:  
AdditionalInfo: 
SignalNames:  


Signal and FFT
sig(real)	sig(imag)	fft(real)	fft(imag)
Signal 1 out of 1 in file
1.8487E-06	1.1847E-06	-7.9250E-06	-2.9910E-06
6.0758E-06	8.2087E-08	-7.3383E-06	-2.2390E-07
3.5752E-06	-2.4070E-06	-5.9505E-06	-9.1032E-08
1.9820E-06	-3.2473E-06	-6.1793E-06	-1.9656E-07
-8.6191E-07	-3.4399E-06	-5.8935E-06	6.1298E-07
-2.3289E-06	-2.1824E-06	-5.4747E-06	7.4741E-07
-3.3514E-06	-8.4995E-07	-4.5944E-06	1.0461E-06
-2.6472E-06	8.2663E-07	-4.6177E-06	-2.0147E-07
-1.6713E-06	1.5561E-06	-5.3914E-06	7.4416E-07
-1.1576E-07	1.6795E-06	-4.4486E-06	7.6385E-07
6.1441E-07	1.0377E-06	-4.4374E-06	6.0521E-07
1.1493E-06	2.8776E-07	-4.4763E-06	3.1627E-08
6.4098E-07	-5.3641E-07	-4.9914E-06	4.4520E-07
2.3602E-07	-7.2919E-07	-5.3229E-06	3.2591E-07
-5.4817E-07	-8.0578E-07	-5.0624E-06	2.2191E-06
-8.6657E-07	-5.0649E-07	-3.2724E-06	2.7159E-07
-1.0686E-06	-2.4738E-07	-6.0084E-06	8.5583E-07
-9.3819E-07	1.6167E-08	-3.5696E-06	1.9627E-06
-1.0268E-06	7.7353E-08	-4.6848E-06	3.1030E-07
-8.7676E-07	2.2301E-07	-4.5744E-06	1.6081E-06
-1.0505E-06	2.7917E-07	-4.7291E-06	1.3330E-06
-1.0500E-06	5.5861E-07	-3.9451E-06	2.1135E-06
-1.0646E-06	7.0299E-07	-3.9943E-06	1.0371E-06
-7.7179E-07	9.4908E-07	-4.5116E-06	1.7406E-06
-5.5546E-07	9.7723E-07	-4.1587E-06	2.2436E-06
-5.1219E-09	8.8741E-07	-3.1837E-06	2.2511E-06
1.8388E-07	5.1090E-07	-3.4489E-06	1.7264E-06
2.5790E-07	1.6947E-07	-2.5396E-06	2.1516E-06
-1.0042E-08	-9.2247E-08	-2.5680E-06	4.2342E-07
-3.3713E-07	-3.6289E-08	-3.6950E-06	8.5828E-07
-7.8024E-07	1.1130E-07	-3.4216E-06	9.0336E-07
-8.4984E-07	5.3076E-07	-3.9094E-06	9.1079E-07
-8.3931E-07	8.5366E-07	-3.9301E-06	1.3743E-06
-4.9682E-07	1.0930E-06	-3.7219E-06	1.4713E-06
-1.8321E-07	1.0713E-06	-3.7444E-06	1.6091E-06
1.8018E-07	9.9716E-07	-3.4379E-06	1.8251E-06
3.2670E-07	7.0709E-07	-2.8509E-06	1.7073E-06
4.4441E-07	5.2457E-07	-2.8886E-06	3.5451E-07
3.4565E-07	3.7353E-07	-4.8389E-06	9.5838E-07
3.0755E-07	4.1498E-07	-3.4498E-06	2.3088E-06
3.4481E-07	3.6032E-07	-3.8673E-06	8.8520E-07
4.2386E-07	3.1092E-07	-4.3678E-06	2.8664E-06
5.0537E-07	1.6255E-07	-2.2129E-06	2.1494E-06
5.6037E-07	-1.2171E-07	-3.7816E-06	1.1063E-06
3.4525E-07	-3.5767E-07	-3.3858E-06	2.7300E-06
1.3353E-07	-4.6794E-07	-2.7749E-06	1.6186E-06
-1.9554E-07	-3.8524E-07	-3.2215E-06	2.5258E-06
-3.4062E-07	-1.0584E-07	-1.7848E-06	1.3521E-06
-3.8605E-07	2.2156E-07	-3.9634E-06	1.0365E-06
-1.1365E-07	4.9104E-07	-2.9458E-06	2.5317E-06
1.4329E-07	4.2156E-07	-2.8578E-06	1.6912E-06
3.5290E-07	3.0805E-07	-2.5188E-06	1.9360E-06
4.4436E-07	3.6346E-08	-3.1374E-06	1.3194E-06
3.0234E-07	-2.7402E-07	-2.7493E-06	2.4467E-06
-1.1142E-08	-4.3716E-07	-2.2862E-06	1.2917E-06
-2.4324E-07	-3.3498E-07	-2.9662E-06	1.7806E-06
-5.2327E-07	-1.0629E-07	-2.2897E-06	1.3911E-06
-4.3490E-07	1.8550E-07	-3.3812E-06	1.3387E-06
-3.2569E-07	3.8984E-07	-2.4508E-06	2.4424E-06
3.5945E-08	4.8991E-07	-2.1430E-06	7.2338E-07
2.9012E-07	3.9822E-07	-3.6382E-06	1.8054E-06
4.4236E-07	2.0341E-07	-1.7450E-06	1.7741E-06
4.3546E-07	-7.3391E-08	-3.3499E-06	6.9349E-07
2.0524E-07	-1.6788E-07	-2.9300E-06	2.3520E-06
2.1510E-08	-2.0558E-07	-2.3075E-06	1.7824E-06
-1.6512E-07	-5.7929E-08	-1.4944E-06	1.4042E-06
-1.6955E-07	9.5358E-08	-2.7969E-06	-2.9309E-07
-5.3884E-08	2.1190E-07	-3.6287E-06	1.4532E-06
3.4398E-08	2.3076E-07	-2.7985E-06	7.6962E-07
1.7056E-07	1.5901E-07	-4.2085E-06	1.0398E-06
1.7400E-07	-1.7627E-08	-3.6758E-06	2.4148E-06
7.9988E-08	-7.8713E-08	-2.6053E-06	1.8665E-06
-1.2893E-08	-1.2180E-07	-3.3792E-06	1.4777E-06
-1.0303E-07	3.8331E-08	-2.9872E-06	1.8089E-06
-3.7698E-08	1.6785E-07	-4.0614E-06	1.6385E-06
3.7540E-08	3.0258E-07	-2.8909E-06	3.4903E-06
2.0663E-07	3.0993E-07	-2.0508E-06	1.5686E-06
3.1116E-07	1.9284E-07	-2.9446E-06	2.1295E-06
3.3700E-07	5.8748E-08	-2.5334E-06	1.5068E-06
3.4104E-07	-1.3338E-07	-3.2476E-06	2.2979E-06
1.6237E-07	-1.5548E-07	-2.1819E-06	1.9161E-06
1.0695E-09	-7.7472E-08	-3.1132E-06	1.9116E-06
-3.6901E-08	7.5448E-09	-2.0555E-06	2.2268E-06
3.3371E-09	1.6659E-07	-2.6693E-06	8.8947E-07
1.4805E-07	2.4954E-07	-3.8724E-06	2.0837E-06
3.1538E-07	2.0516E-07	-2.4947E-06	2.9291E-06
4.3997E-07	3.0727E-08	-2.3612E-06	2.0406E-06
4.9897E-07	-8.7554E-08	-1.9192E-06	2.3797E-06
3.9368E-07	-2.4555E-07	-2.1680E-06	7.4937E-07
2.3222E-07	-3.7036E-07	-3.4913E-06	2.1009E-06
1.0247E-07	-3.2278E-07	-2.0263E-06	1.8278E-06
-2.5788E-08	-1.9579E-07	-3.5314E-06	1.5358E-06
-7.8509E-08	-9.4650E-08	-2.6728E-06	2.9886E-06
6.5666E-08	1.5553E-07	-1.8153E-06	1.9501E-06
1.5749E-07	1.5738E-07	-2.5440E-06	1.2610E-06
3.5323E-07	1.4760E-07	-3.4673E-06	1.8907E-06
4.2372E-07	-6.9058E-09	-2.8390E-06	3.0014E-06
4.6066E-07	-1.7942E-07	-1.6687E-06	2.5320E-06
3.7180E-07	-3.3998E-07	-2.0784E-06	1.4268E-06
2.2068E-07	-4.3278E-07	-2.7601E-06	2.0036E-06
7.0472E-08	-4.1083E-07	-2.2827E-06	1.9412E-06
2.8121E-08	-3.6065E-07	-2.8016E-06	2.1503E-06
-2.0253E-08	-2.7429E-07	-1.8850E-06	2.3841E-06
-2.3149E-08	-2.0565E-07	-2.2985E-06	1.5055E-06
1.6367E-09	-2.0565E-07	-2.4614E-06	2.1738E-06
1.4561E-08	-1.7447E-07	-2.1510E-06	1.6865E-06
-3.9392E-08	-1.9865E-07	-2.7706E-06	1.9138E-06
-6.9562E-08	-1.0627E-07	-2.2737E-06	2.3617E-06
-9.5241E-08	-4.4028E-08	-1.9229E-06	1.8807E-06
-1.0476E-08	2.5944E-08	-2.3198E-06	1.5294E-06
2.5229E-08	3.0789E-08	-2.5397E-06	1.8041E-06
2.0726E-07	7.1220E-08	-2.6197E-06	1.7663E-06
2.4951E-07	-5.0743E-08	-2.6622E-06	2.4341E-06
2.5375E-07	-1.9742E-07	-1.5974E-06	2.0104E-06
1.1373E-07	-2.7547E-07	-2.5096E-06	1.1009E-06
2.6504E-08	-2.3820E-07	-3.0132E-06	1.8761E-06
-1.2099E-07	-2.3776E-07	-2.8567E-06	2.3193E-06
-1.2421E-07	-9.7206E-08	-2.2537E-06	2.3753E-06
-9.1252E-08	-4.1343E-08	-2.7420E-06	2.2391E-06
4.7609E-08	1.1146E-07	-1.5692E-06	3.2152E-06
1.0583E-07	9.4248E-08	-9.8791E-07	1.0314E-06
2.2533E-07	1.3892E-08	-2.6847E-06	1.2960E-06
2.4244E-07	-9.6565E-08	-2.2284E-06	1.4217E-06
2.1162E-07	-1.9397E-07	-3.1211E-06	1.6173E-06
8.4502E-08	-2.4749E-07	-2.3854E-06	2.1295E-06
-1.5885E-08	-2.2005E-07	-2.8063E-06	1.6746E-06
-7.6639E-08	-1.1835E-07	-2.6321E-06	2.3440E-06
-9.7516E-08	1.5510E-09	-2.4333E-06	2.1014E-06
-2.7320E-08	6.7961E-09	-2.0976E-06	2.1122E-06
2.3875E-08	6.6381E-08	-2.6354E-06	1.3711E-06
4.0742E-08	1.5385E-08	-2.9882E-06	2.5409E-06
8.1539E-08	-4.1268E-08	-1.9528E-06	2.0966E-06
5.1355E-08	-7.7329E-08	-2.7605E-06	1.7663E-06
3.0843E-08	-9.6227E-08	-2.7340E-06	2.3563E-06
3.2792E-08	-1.0464E-07	-2.3000E-06	2.5674E-06
2.3895E-08	5.9209E-11	-2.0176E-06	1.9264E-06
6.8484E-08	3.2049E-09	-2.6539E-06	2.2136E-06
1.0824E-07	-1.0971E-08	-1.8141E-06	2.2531E-06
1.7825E-07	-6.3123E-08	-2.2327E-06	1.6312E-06
2.1325E-07	-7.8164E-08	-2.2409E-06	1.5387E-06
1.5354E-07	-1.9712E-07	-3.3027E-06	1.3884E-06
8.6360E-08	-2.4808E-07	-3.1812E-06	2.6734E-06
-1.0509E-08	-2.4871E-07	-2.5257E-06	2.4544E-06
-7.4846E-08	-2.1002E-07	-2.6897E-06	2.3291E-06
-1.2940E-07	-1.1917E-07	-2.7745E-06	2.6612E-06
-6.4861E-08	-3.9527E-09	-2.4353E-06	2.8076E-06
-1.6485E-08	-1.9167E-09	-2.0082E-06	3.1594E-06
1.1592E-07	-1.5169E-09	-1.0944E-06	1.7813E-06
8.9676E-08	-1.0371E-07	-3.2647E-06	1.7805E-06
7.4033E-08	-1.1426E-07	-1.5177E-06	2.9607E-06
6.0088E-08	-1.5503E-07	-2.7867E-06	9.6404E-07
-2.4177E-08	-1.3409E-07	-2.9030E-06	3.5473E-06
-4.6183E-08	-1.1631E-07	-1.5240E-06	1.8724E-06
-6.8535E-08	-5.4077E-08	-3.0636E-06	2.3731E-06
-7.7338E-08	-4.8985E-08	-2.2662E-06	2.8919E-06
-4.0941E-08	-2.1401E-08	-1.8230E-06	2.9422E-06
-3.0023E-08	1.6071E-08	-1.5089E-06	1.8275E-06
3.0843E-08	4.8695E-10	-2.8498E-06	1.8717E-06
3.3410E-08	-5.8770E-09	-2.9219E-06	3.1569E-06
2.9854E-08	-1.3848E-08	-1.2142E-06	3.6275E-06
3.5539E-08	-8.3290E-08	-1.0915E-06	1.6525E-06
4.4167E-08	-6.3395E-08	-2.1509E-06	2.2323E-06
4.1220E-08	-5.2841E-08	-1.8608E-06	1.9926E-06
2.3073E-08	-7.8801E-08	-2.1945E-06	2.8456E-06
2.0473E-08	-9.4008E-08	-8.2090E-07	2.4351E-06
-1.9015E-08	-5.1410E-08	-1.0920E-06	1.4917E-06
-5.0576E-08	-3.7249E-08	-1.7616E-06	7.1281E-07
-5.9944E-08	-3.8505E-08	-2.8200E-06	1.5817E-06
-8.5275E-08	8.3377E-09	-2.2029E-06	1.8377E-06
-6.0398E-08	2.2297E-08	-2.1671E-06	2.0507E-06
-3.6237E-08	6.4982E-08	-1.7264E-06	9.5246E-07
-1.2653E-08	7.9299E-08	-3.6974E-06	1.3668E-06
2.9273E-08	3.7157E-08	-2.3360E-06	2.8810E-06
6.1525E-08	3.2749E-10	-1.8043E-06	1.2302E-06
5.0298E-08	-4.5445E-08	-3.3918E-06	1.2534E-06
3.9925E-08	-4.6481E-08	-2.9539E-06	2.4928E-06
6.8275E-08	-6.6722E-09	-2.7804E-06	1.6982E-06
1.5181E-08	-2.0381E-08	-2.9497E-06	2.6775E-06
-3.2433E-09	-9.7308E-08	-2.2535E-06	1.3295E-06
-2.1175E-08	-5.4064E-09	-3.9930E-06	2.1814E-06
3.2964E-08	-4.8382E-08	-2.5988E-06	2.0969E-06
5.9209E-08	-1.2285E-08	-4.7115E-06	2.1654E-06
1.3329E-08	-5.3570E-08	-3.2590E-06	4.0899E-06
2.4079E-08	-2.2041E-08	-2.9716E-06	3.3337E-06
2.1021E-08	-9.5116E-08	-2.2134E-06	3.5006E-06
1.7170E-08	-5.3905E-08	-3.2113E-06	2.8485E-06
2.7201E-08	-8.3988E-08	-2.4463E-06	4.5849E-06
-2.3636E-09	-4.7212E-08	-1.4074E-06	3.4987E-06
-4.0389E-08	-3.6588E-08	-1.1652E-06	3.2043E-06
-3.1396E-08	-4.3296E-08	-1.8512E-06	2.0319E-06
-7.4536E-08	-4.4298E-08	-2.2612E-06	3.3376E-06
-3.9354E-08	-5.7927E-08	-1.4107E-06	2.6172E-06
-9.5100E-08	-8.8372E-08	-1.9206E-06	2.8806E-06
-8.5136E-08	1.9865E-08	-1.2613E-06	2.1661E-06
-2.4640E-08	2.9156E-08	-2.7154E-06	2.1486E-06
-3.0903E-08	4.1743E-08	-1.9641E-06	3.3729E-06
-7.9137E-08	4.8385E-08	-1.1975E-06	2.4317E-06
8.5667E-10	7.1147E-08	-1.9533E-06	1.8099E-06
-2.1287E-08	2.7802E-08	-2.4487E-06	2.4340E-06
1.4305E-08	-6.7934E-09	-1.9841E-06	2.4339E-06
-1.7127E-08	-5.0790E-08	-2.6068E-06	2.5420E-06
6.9816E-09	-2.7789E-08	-1.5651E-06	3.3084E-06
-7.9005E-08	-1.1095E-08	-1.3146E-06	1.6989E-06
