jMRUI Data Textfile

Filename: Export_to_jmrui.txt

PointsInDataset: 2048
DatasetsInFile: 1
SamplingInterval: 0.250000
ZeroOrderPhase: 0E0
BeginTime: 0E0
TransmitterFrequency: 1.2326E8
MagneticField: 2.8936E0
TypeOfNucleus:  
NameOfPatient:  
DateOfExperiment:  
Spectrometer:  
AdditionalInfo: 
SignalNames:  


Signal and FFT
sig(real)	sig(imag)	fft(real)	fft(imag)
Signal 1 out of 1 in file
2.9579E-06	-1.1359E-06	-4.4203E-06	2.7373E-07
4.6945E-06	-1.2091E-06	-3.2395E-06	3.4349E-09
2.6410E-06	-2.0341E-06	-3.2704E-06	3.0524E-07
1.6180E-06	-2.6108E-06	-2.6919E-06	3.0457E-07
-5.4415E-07	-2.4538E-06	-3.0004E-06	3.0455E-07
-1.6813E-06	-1.5646E-06	-2.4939E-06	1.1339E-06
-2.6045E-06	-4.3712E-07	-1.7404E-06	4.4934E-07
-2.1198E-06	6.5637E-07	-2.3747E-06	6.4330E-07
-1.4519E-06	1.2098E-06	-1.3644E-06	9.3423E-07
-1.1127E-07	1.0579E-06	-1.5465E-06	2.2790E-07
4.8058E-07	7.0988E-07	-1.2522E-06	5.1629E-07
8.4798E-07	3.2590E-07	-1.2854E-06	-3.9638E-07
4.9763E-07	-9.7716E-08	-2.3033E-06	-1.3550E-07
1.9645E-07	-4.2320E-07	-2.0556E-06	1.1067E-06
-4.4825E-07	-4.2690E-07	-4.9699E-07	5.9986E-07
-6.8786E-07	-2.3869E-07	-1.6575E-06	-5.9833E-07
-9.2352E-07	-2.4416E-07	-1.6398E-06	8.6585E-07
-7.8068E-07	-6.0344E-08	-7.4523E-07	-3.7390E-07
-7.6150E-07	6.7088E-08	-2.4021E-06	-3.5393E-07
-6.8450E-07	3.1637E-08	-1.9253E-06	9.3678E-07
-8.8907E-07	1.0922E-07	-1.2934E-06	5.7135E-07
-8.8391E-07	3.5402E-07	-1.3048E-06	4.4305E-07
-9.8044E-07	5.8245E-07	-1.3929E-06	7.6792E-08
-7.3663E-07	8.1004E-07	-1.8707E-06	5.0239E-07
-5.2736E-07	9.5816E-07	-1.4534E-06	4.8322E-07
-4.3811E-08	8.8656E-07	-2.2087E-06	1.0784E-06
1.6276E-07	4.4142E-07	-1.3248E-07	1.7414E-06
2.3485E-07	4.7129E-08	-6.3780E-07	-8.2845E-07
-5.8192E-08	-6.4558E-08	-2.0974E-06	5.6263E-07
-3.1774E-07	-3.4279E-08	-1.3584E-06	4.2693E-07
-6.7540E-07	1.0192E-07	-2.0845E-06	1.0750E-06
-7.5686E-07	4.9343E-07	-1.2129E-06	1.3365E-06
-6.4840E-07	8.4151E-07	-1.2940E-06	1.6866E-06
-4.2026E-07	9.5264E-07	-3.5710E-08	1.4074E-06
-1.0023E-07	9.5657E-07	-5.8729E-07	8.0029E-07
1.1784E-07	8.3405E-07	2.3209E-08	7.2490E-07
2.7288E-07	5.0663E-07	-9.7813E-07	-2.2426E-08
3.2683E-07	2.6798E-07	-8.6450E-07	9.2509E-07
2.0937E-07	2.6198E-07	-9.5477E-07	4.2719E-07
2.1578E-07	3.8770E-07	-8.0037E-07	1.0849E-06
2.4182E-07	3.7110E-07	-8.3759E-07	2.5627E-07
3.0629E-07	2.8363E-07	-1.5839E-06	1.0871E-06
3.8891E-07	1.4169E-07	-1.2570E-06	1.6673E-06
4.1533E-07	-4.3156E-08	-1.4361E-07	2.5354E-06
2.5934E-07	-2.0325E-07	8.6146E-07	8.7898E-07
9.6891E-09	-2.6221E-07	-1.7453E-07	9.2121E-07
-1.7655E-07	-2.5663E-07	3.4431E-07	6.3471E-07
-2.9157E-07	-8.9757E-08	-1.9813E-07	1.0917E-06
-3.1198E-07	1.9043E-07	1.3418E-06	3.3326E-07
-1.3250E-07	3.8672E-07	-6.2388E-07	-9.9494E-07
4.6247E-08	4.2577E-07	-1.0379E-06	6.0551E-07
2.8008E-07	3.3120E-07	-7.2594E-07	7.0575E-07
2.7240E-07	7.6077E-08	-4.4536E-07	1.0943E-06
1.8269E-07	-1.1270E-07	-1.2885E-07	1.0067E-06
-4.9787E-08	-2.4228E-07	7.9609E-08	6.9784E-07
-2.7502E-07	-1.8880E-07	-4.1059E-07	1.0409E-06
-4.8075E-07	7.8354E-08	1.0362E-06	1.3668E-06
-3.5724E-07	2.8146E-07	1.0776E-06	-4.4387E-07
-1.8289E-07	4.2506E-07	-1.6609E-07	-8.5740E-07
7.4605E-08	3.7920E-07	-1.2955E-06	-8.8929E-09
1.6072E-07	2.5741E-07	-3.4414E-07	8.9154E-07
2.6896E-07	1.6071E-07	-7.8368E-07	3.7470E-07
1.5206E-07	-3.4914E-09	5.4650E-08	1.7758E-06
6.2976E-08	-1.1692E-07	1.0826E-06	-4.6447E-08
-1.2038E-07	-8.7455E-08	-3.1326E-07	-3.3996E-07
-1.8388E-07	1.6791E-08	-7.3216E-07	1.2521E-07
-2.2595E-07	1.4642E-07	-2.6333E-07	1.0916E-06
-1.4595E-07	2.4357E-07	5.4461E-07	-9.5134E-08
-3.5953E-08	2.5707E-07	-7.2966E-07	-2.2689E-07
9.3060E-08	1.4495E-07	-7.8149E-07	2.2215E-07
1.0457E-07	4.0124E-08	-1.0022E-06	8.5000E-07
4.4686E-08	-4.6170E-09	-2.7131E-07	9.4267E-07
-9.7301E-08	1.5582E-09	-5.0384E-07	1.0163E-06
-1.4134E-07	1.1526E-07	2.8116E-07	1.1126E-06
-1.0279E-07	2.0590E-07	5.7097E-08	6.3688E-07
3.8147E-08	2.7979E-07	4.9493E-07	7.9398E-07
7.1068E-08	2.9078E-07	2.4796E-07	-1.5415E-07
1.6773E-07	2.2768E-07	-5.1139E-07	4.1996E-07
1.6936E-07	7.8677E-08	2.1624E-07	6.9465E-07
1.1668E-07	2.3766E-08	3.5931E-08	-1.0514E-07
-2.2560E-08	4.1413E-09	-5.5365E-07	3.8709E-07
-5.7495E-08	2.9969E-08	-1.1564E-07	2.5354E-07
-1.3419E-07	1.6194E-07	-1.0869E-06	3.6977E-07
-6.7276E-08	2.3119E-07	-3.3575E-07	1.4718E-06
2.1095E-08	2.8479E-07	-1.5913E-08	6.9677E-07
2.2227E-07	2.5887E-07	-1.0709E-07	1.2613E-06
2.8436E-07	2.0144E-07	5.4771E-07	6.6334E-07
3.2616E-07	2.8318E-08	-8.4841E-08	6.4421E-07
2.6022E-07	-1.3145E-07	4.5070E-07	7.8880E-07
1.1479E-07	-1.6095E-07	1.6904E-07	2.5538E-07
1.1328E-08	-1.1436E-07	-4.9180E-08	7.1010E-07
-3.7812E-08	-5.7643E-08	6.2924E-07	6.2887E-07
-4.7944E-08	3.0808E-08	1.9801E-07	-4.2413E-07
-1.2641E-08	1.3787E-07	-9.5084E-07	4.9963E-07
9.8795E-08	2.1915E-07	3.2459E-07	1.1225E-06
2.2104E-07	1.9563E-07	1.5147E-07	-7.2615E-08
2.7893E-07	9.2599E-08	-7.4515E-07	5.1519E-07
3.2494E-07	2.6672E-08	-2.3675E-07	1.3375E-06
2.4575E-07	-1.4162E-07	7.5260E-07	9.5109E-07
1.9254E-07	-2.3860E-07	2.6406E-07	-6.5787E-08
6.0879E-08	-2.1591E-07	-4.7098E-07	5.1834E-07
1.7508E-08	-2.2161E-07	-2.9633E-08	8.7385E-07
-3.5864E-08	-2.1013E-07	1.5296E-08	7.0832E-07
-8.4125E-08	-1.0400E-07	1.5885E-07	9.5142E-07
-9.0711E-08	-1.0785E-07	6.0570E-07	3.3120E-07
-1.0757E-07	-9.5931E-08	-5.9887E-07	-1.9128E-08
-9.9603E-08	-5.8793E-08	-6.2782E-07	1.3602E-06
-9.7316E-08	2.0734E-08	1.5530E-07	1.2864E-06
-5.1290E-08	6.6703E-08	3.6437E-07	1.4442E-06
4.0491E-08	1.1005E-07	1.0460E-06	1.0449E-06
6.7381E-08	6.3836E-08	1.0246E-06	4.1305E-07
1.1633E-07	6.7292E-08	5.5033E-07	-2.1800E-07
9.5466E-08	-2.1569E-09	-2.7058E-07	2.5088E-07
1.3687E-07	-4.8072E-08	1.0445E-07	6.0679E-07
1.1065E-07	-1.2046E-07	-8.8917E-08	5.5595E-07
2.5395E-08	-1.2860E-07	1.1273E-07	8.5145E-07
-6.2958E-08	-1.3656E-07	1.8816E-07	7.0674E-07
-1.2883E-07	-7.7942E-08	1.5282E-07	7.2709E-07
-1.1570E-07	9.8143E-09	4.8155E-09	9.2326E-07
-7.9073E-10	9.5683E-08	4.4979E-07	1.2912E-06
8.8607E-08	7.9557E-08	9.0899E-07	9.3203E-07
1.5104E-07	6.1152E-08	9.3236E-07	5.1604E-07
1.4350E-07	-3.6172E-08	7.1152E-07	3.4149E-07
1.3154E-07	-1.0772E-07	9.2641E-07	1.2565E-07
2.7596E-08	-1.6933E-07	8.7782E-08	-6.7510E-07
2.4189E-08	-9.8093E-08	-9.0837E-07	6.4675E-07
-5.6570E-08	-4.2407E-08	4.1421E-07	1.2885E-06
-1.6469E-08	4.1942E-10	5.1443E-07	4.2522E-07
-1.8446E-09	9.1632E-09	1.6938E-07	6.7347E-07
1.0712E-08	3.6855E-08	5.6887E-07	7.7001E-07
4.1069E-08	1.3055E-08	5.7504E-07	2.5757E-07
4.6142E-08	3.8294E-09	9.8367E-08	4.6459E-07
4.0399E-08	-7.5714E-08	5.1502E-07	5.0112E-07
5.0063E-08	-7.8956E-08	-6.9540E-08	3.2456E-07
2.4124E-08	-2.4189E-08	3.6872E-07	9.5915E-07
2.2222E-08	-2.2750E-08	1.8554E-07	3.8703E-07
1.0364E-07	-1.4950E-08	4.5393E-07	1.4116E-06
1.2728E-07	-4.0651E-08	1.3422E-06	2.4811E-07
1.5246E-07	-1.6594E-08	5.6762E-07	1.1121E-07
1.9058E-07	-6.3761E-08	4.5672E-07	-5.1921E-07
1.5362E-07	-1.2491E-07	-8.0244E-07	5.3672E-07
7.1957E-08	-1.5390E-07	7.4687E-07	8.6321E-07
2.8590E-09	-1.6990E-07	6.8299E-08	2.0031E-07
-4.3930E-08	-1.2684E-07	4.4503E-07	4.2722E-07
-6.7357E-08	-6.8125E-08	-3.3474E-07	5.0430E-07
-4.5627E-08	-7.1804E-08	1.0890E-06	8.3537E-07
-1.3777E-09	-2.0215E-08	-3.3874E-07	-7.0283E-07
3.1461E-08	6.3863E-08	-3.4103E-07	1.4739E-06
5.9387E-08	-5.2664E-10	5.0681E-07	2.8212E-07
9.0381E-08	-1.9499E-08	-1.0747E-07	1.1193E-06
7.1942E-08	-1.0738E-07	9.4315E-07	4.8277E-07
6.8492E-08	-1.0418E-07	3.7715E-08	9.6778E-08
-3.4768E-08	-1.3636E-07	-3.5107E-07	5.3139E-07
-6.4459E-09	-5.9704E-08	5.9223E-08	1.4402E-06
-5.0442E-08	-4.7729E-08	7.4996E-07	7.8919E-07
-3.2002E-08	-2.7215E-08	6.8543E-07	9.2570E-07
-6.3202E-08	-1.2533E-08	7.8106E-07	-1.5097E-07
1.5462E-08	-6.8528E-09	-4.3634E-07	1.0355E-06
5.7046E-08	-2.1176E-08	1.8462E-06	1.0338E-06
5.1743E-08	-2.6677E-08	8.0320E-07	-1.0406E-06
5.3611E-08	-4.7073E-08	-3.5891E-07	-2.6347E-07
4.6202E-08	-5.2890E-08	-2.8859E-07	3.4878E-07
3.7237E-08	-6.9928E-08	1.5911E-07	1.0930E-07
4.7366E-09	-5.1883E-08	-8.5788E-07	-1.3359E-08
-8.0329E-09	-9.5846E-08	-5.2861E-07	1.0963E-06
-1.0037E-08	-3.0844E-08	-3.7925E-07	6.6620E-07
-3.3706E-09	-4.6275E-08	-4.6919E-07	1.6117E-06
-2.7849E-08	-1.8887E-08	8.3514E-07	1.2811E-06
-2.5349E-08	-8.8346E-09	2.8746E-07	3.1224E-07
-3.7470E-08	2.8914E-08	-1.7279E-07	8.6678E-07
2.1708E-09	2.7719E-08	3.3410E-07	9.7472E-07
3.1240E-08	2.3852E-08	2.5841E-07	3.5743E-07
3.8682E-08	1.8993E-08	-6.3696E-07	5.5913E-07
7.3170E-08	2.6962E-08	-3.2918E-07	1.4745E-06
8.5266E-08	-9.0841E-09	-8.4771E-08	1.1966E-06
8.6586E-08	-1.6449E-08	-9.8061E-08	2.0159E-06
6.5995E-08	-4.4541E-08	1.3228E-06	1.6877E-06
6.1463E-08	-4.6381E-08	8.4460E-07	5.1304E-07
2.2857E-08	-1.0849E-07	3.2643E-07	9.4864E-07
1.1303E-08	-4.9018E-08	7.3919E-07	9.0541E-07
3.6356E-08	-6.2621E-08	2.9425E-07	4.7040E-07
7.3399E-08	-2.3619E-08	-1.0002E-07	1.1601E-06
5.4075E-08	-6.5267E-08	5.6801E-07	1.6212E-06
1.7685E-08	-6.6767E-08	1.4459E-06	1.0158E-06
6.9984E-08	-1.0635E-07	4.7897E-07	-2.7085E-07
3.9140E-08	-1.0962E-07	-4.9319E-07	1.2918E-06
6.6795E-09	-9.8091E-08	9.9355E-07	1.3150E-06
2.7604E-09	-1.4002E-07	5.0271E-07	8.6580E-07
-4.9963E-08	-9.9777E-08	1.0418E-06	8.2770E-07
-2.5511E-08	-9.2607E-08	2.3703E-07	3.6506E-07
-5.6291E-08	-6.1433E-08	5.3850E-07	1.0520E-06
-3.3679E-08	-6.1285E-08	2.7420E-07	4.4131E-07
-2.3302E-08	-7.1389E-08	1.7579E-07	1.5648E-06
-4.0944E-09	-7.1754E-08	1.5763E-06	8.5950E-07
-5.6374E-08	-2.3743E-08	1.8124E-07	-3.6866E-07
2.3914E-08	-5.5794E-08	-4.2499E-07	1.5237E-06
-3.8444E-09	-4.3663E-08	1.3963E-06	1.0030E-06
1.3275E-08	-3.2505E-08	-8.0184E-08	2.5705E-07
-2.4057E-08	-2.4011E-08	6.9382E-07	1.4573E-06
1.2027E-08	-3.8225E-08	4.3165E-07	1.5246E-07
-3.2098E-08	-4.9640E-08	1.7336E-07	1.5895E-06
1.4182E-08	-2.2136E-09	1.3454E-06	4.6022E-07
-4.3351E-08	-6.2970E-08	1.1907E-07	3.2562E-07
1.2848E-08	-5.6893E-09	2.8574E-07	4.1498E-07
-1.4313E-08	-2.6496E-08	-4.0548E-07	8.9554E-07
