jMRUI Data Textfile

Filename: Export_to_jmrui.txt

PointsInDataset: 2048
DatasetsInFile: 1
SamplingInterval: 0.250000
ZeroOrderPhase: 0E0
BeginTime: 0E0
TransmitterFrequency: 1.2326E8
MagneticField: 2.8936E0
TypeOfNucleus:  
NameOfPatient:  
DateOfExperiment:  
Spectrometer:  
AdditionalInfo: 
SignalNames:  


Signal and FFT
sig(real)	sig(imag)	fft(real)	fft(imag)
Signal 1 out of 1 in file
2.6537E-06	-9.3497E-07	-2.9104E-06	4.0724E-07
3.6797E-06	-7.0495E-07	-2.6862E-06	7.6983E-07
2.0490E-06	-1.3533E-06	-1.9952E-06	2.3765E-07
1.2577E-06	-1.8981E-06	-2.5184E-06	8.0085E-07
-4.5516E-07	-1.9391E-06	-1.2958E-06	9.1462E-07
-1.3026E-06	-1.3941E-06	-1.5470E-06	3.1413E-07
-1.9125E-06	-4.3731E-07	-1.3960E-06	4.6536E-07
-1.4912E-06	2.9128E-07	-1.8041E-06	4.7756E-07
-1.0253E-06	6.9878E-07	-8.7382E-07	1.2179E-06
-1.8129E-08	5.5431E-07	-8.3147E-07	-4.1765E-07
3.1278E-07	3.3087E-07	-2.1308E-06	8.8133E-07
5.2068E-07	1.7234E-07	-3.6030E-07	1.0548E-06
2.4874E-07	-1.5893E-07	-7.8536E-07	1.9705E-07
2.1587E-09	-2.8209E-07	-8.5790E-07	-9.7817E-08
-4.1431E-07	-2.4443E-07	-2.1988E-06	6.5128E-07
-4.9275E-07	-1.6854E-07	-3.0800E-07	1.8940E-06
-5.8494E-07	-1.7017E-07	-8.8831E-08	1.7838E-07
-4.6551E-07	-8.8037E-08	-5.4471E-07	4.3858E-07
-5.2230E-07	3.3523E-08	-7.3040E-07	2.9347E-07
-4.4240E-07	-8.0056E-08	-2.9396E-07	7.6022E-07
-6.6757E-07	1.6686E-08	-3.1145E-07	-3.3008E-07
-6.8353E-07	1.8289E-07	-1.4305E-06	2.2934E-07
-8.0217E-07	4.0405E-07	-8.8162E-07	1.2010E-06
-5.7506E-07	6.7588E-07	6.2663E-08	8.5681E-07
-4.0129E-07	7.4625E-07	-2.8355E-07	1.9070E-07
-1.5626E-08	6.0233E-07	-3.1655E-07	5.1051E-07
1.6522E-07	2.6644E-07	-2.8403E-07	-7.5456E-09
2.0813E-07	7.0123E-08	-1.0173E-06	2.8766E-07
-2.8666E-08	2.7366E-08	-5.9651E-07	9.4338E-07
-1.9613E-07	3.9191E-09	-3.3978E-07	6.6233E-07
-4.6028E-07	1.1870E-07	-1.6146E-07	8.7271E-07
-5.4590E-07	3.6884E-07	-1.1323E-07	1.8905E-07
-5.5602E-07	6.2701E-07	-6.1197E-07	8.9438E-07
-3.1667E-07	8.3407E-07	1.1550E-07	4.0285E-07
-7.4983E-08	8.0166E-07	-9.4798E-07	1.0831E-06
1.8947E-07	6.7146E-07	1.0501E-06	1.2698E-06
2.0083E-07	4.2668E-07	-1.6776E-07	-1.6748E-07
2.8343E-07	2.4110E-07	8.3675E-08	1.2684E-06
1.5237E-07	2.4462E-07	5.5345E-07	4.5000E-07
1.2134E-07	3.0866E-07	6.8005E-07	6.1255E-07
8.2222E-08	3.9693E-07	5.4131E-07	-2.4016E-07
2.4343E-07	3.7660E-07	1.2100E-07	2.7511E-07
3.1194E-07	1.8854E-07	5.9764E-07	4.4652E-08
3.8675E-07	2.5899E-08	3.3414E-07	-4.9991E-07
2.2498E-07	-1.2885E-07	-5.7511E-07	-3.8546E-07
8.9195E-08	-1.8977E-07	-2.7010E-07	6.3708E-07
-4.8787E-08	-1.3307E-07	4.9099E-07	-4.5832E-08
-1.4908E-07	-4.8439E-08	-6.5674E-07	-6.0366E-07
-2.0818E-07	1.4722E-07	-9.0386E-07	1.1066E-06
-9.3918E-08	2.9736E-07	8.0831E-07	3.7551E-07
3.7505E-08	3.1853E-07	-1.0519E-06	-1.0591E-07
1.5249E-07	2.1935E-07	1.0638E-07	1.7493E-06
1.2547E-07	8.7023E-08	7.5209E-07	1.6475E-07
8.5586E-08	-6.2574E-08	1.0383E-07	6.4079E-07
-6.2549E-08	-1.1114E-07	9.4256E-07	3.0855E-07
-2.2970E-07	-7.5754E-08	1.4298E-07	-6.1926E-07
-3.3309E-07	9.5287E-08	-7.1142E-07	7.3440E-07
-3.0265E-07	2.4121E-07	1.1711E-06	8.6178E-07
-1.4753E-07	3.6937E-07	3.8480E-07	-5.2412E-07
6.8077E-08	4.1120E-07	3.3600E-07	9.9340E-08
1.8230E-07	2.8615E-07	-1.4633E-07	-4.6074E-07
2.3957E-07	9.7088E-08	-1.0369E-07	4.4057E-07
1.2744E-07	-3.7749E-08	5.9293E-08	-8.6592E-08
-2.2950E-09	-8.4844E-08	-7.0659E-08	2.0801E-07
-1.2113E-07	-3.0826E-08	-3.3362E-07	-1.2001E-08
-1.9699E-07	2.6143E-08	-2.5123E-07	6.1810E-07
-1.9218E-07	1.3227E-07	-2.0909E-07	3.9704E-07
-1.6233E-07	2.2962E-07	-7.7415E-08	7.1515E-07
-8.5680E-08	2.1243E-07	-5.4144E-07	8.7607E-07
6.8296E-09	2.3250E-07	9.6439E-07	2.1112E-06
1.8709E-08	1.5826E-07	1.7179E-06	-2.0146E-07
2.8228E-08	7.3405E-08	3.0662E-07	5.1560E-09
-7.8212E-08	9.7597E-08	6.9430E-07	6.4466E-08
-9.5439E-08	1.3150E-07	6.2803E-07	-1.3244E-07
-9.8396E-08	1.5004E-07	3.4434E-08	-7.4054E-07
-5.3707E-08	2.3458E-07	-6.7630E-07	3.9744E-07
2.3656E-08	2.4938E-07	2.7109E-07	6.7642E-07
1.0448E-07	2.7338E-07	4.6135E-07	1.7214E-07
8.1610E-08	1.1137E-07	-2.7289E-07	-1.6178E-07
8.3754E-08	9.2927E-08	-3.7877E-07	1.0559E-06
-3.3917E-09	-2.2616E-09	6.6696E-07	8.9392E-07
-8.0487E-08	7.1983E-08	7.4637E-07	2.8519E-07
-1.2654E-07	1.9507E-07	-7.0626E-08	2.3450E-08
1.5572E-08	2.2473E-07	2.5002E-07	1.3187E-06
1.8249E-08	2.4448E-07	1.3104E-06	3.4067E-07
1.7282E-07	1.8857E-07	6.3975E-07	-1.0607E-09
2.1132E-07	8.6769E-08	5.6970E-07	-1.4857E-07
2.2783E-07	2.3001E-08	2.3655E-07	5.4829E-10
1.7096E-07	-8.8077E-08	7.9654E-08	1.5007E-08
1.1088E-07	-1.4904E-07	2.0952E-07	7.1330E-07
-5.5932E-08	-1.2786E-07	1.0606E-06	5.7618E-08
-1.1513E-07	-2.7116E-08	1.4725E-07	-7.4050E-07
-1.2548E-07	4.8031E-08	-7.1206E-07	2.5503E-07
-1.2155E-08	1.2710E-07	5.3176E-07	6.4020E-07
3.9517E-08	1.7495E-07	-3.9661E-07	-4.0107E-07
1.3801E-07	1.7507E-07	-3.2923E-07	1.1716E-06
1.5976E-07	7.0532E-08	-1.0720E-07	3.4053E-07
1.6617E-07	7.7330E-09	-6.9588E-08	1.9602E-06
1.3534E-07	-1.5011E-07	1.3888E-06	6.1508E-07
1.0581E-07	-1.3790E-07	4.0291E-07	8.7999E-07
7.6184E-09	-1.6959E-07	1.2778E-06	4.1227E-07
-6.4632E-08	-1.5589E-07	7.4712E-07	5.6142E-07
-1.1852E-07	-1.2452E-07	1.3363E-06	-3.8430E-07
-8.4163E-08	-1.3440E-07	-5.8729E-08	4.8086E-09
-1.0325E-07	-2.8857E-08	7.4081E-07	-5.9999E-08
-7.5675E-08	-1.6306E-08	-3.1430E-07	3.8131E-07
-1.0247E-07	-2.2690E-08	1.1405E-06	4.1040E-07
-1.0088E-07	-3.3778E-08	8.0921E-08	-3.2166E-07
-1.2470E-07	1.1356E-08	2.8437E-07	-1.7134E-07
-7.8444E-08	8.7750E-08	-1.1039E-06	2.2864E-07
3.1105E-08	1.0978E-07	2.3086E-07	1.3379E-06
9.1926E-08	8.2495E-08	-2.4564E-07	7.8235E-07
1.3851E-07	-1.5504E-08	9.6736E-07	1.7209E-06
1.1226E-07	-9.6342E-08	8.0941E-07	6.1012E-08
4.2229E-08	-1.3167E-07	2.3278E-07	1.1051E-06
-3.1862E-08	-1.3680E-07	1.0734E-06	8.8678E-07
-1.1288E-07	-9.3446E-08	1.1082E-06	5.0806E-07
-1.2418E-07	-1.8572E-08	9.2916E-07	4.2489E-08
-1.1710E-07	-4.5165E-09	2.5742E-07	-6.7957E-08
-4.1376E-08	3.6860E-08	-1.3773E-08	9.5790E-07
2.0809E-08	1.1522E-07	1.0447E-06	6.0285E-07
1.1031E-07	3.6734E-08	-8.1868E-08	7.2258E-07
1.3864E-07	4.3882E-09	1.5826E-06	1.2904E-06
1.6637E-07	-8.6334E-08	5.5233E-07	-2.7288E-07
9.4140E-08	-1.4114E-07	7.5061E-07	1.2228E-06
-1.0540E-08	-1.1766E-07	7.1776E-07	1.5140E-08
-6.5961E-08	-3.1365E-08	6.0880E-07	1.6764E-06
-5.3390E-08	-1.8034E-08	2.0925E-06	1.8620E-07
-2.8942E-08	4.3762E-09	4.6316E-07	2.6837E-08
-9.0849E-09	2.1152E-08	9.3733E-07	7.3072E-07
-3.2326E-08	-6.1053E-09	1.1475E-06	6.9475E-07
6.5619E-08	6.3338E-09	1.6739E-06	4.1841E-07
3.0989E-08	2.7624E-09	1.6076E-06	-2.7979E-07
7.4906E-08	-1.9092E-08	1.0276E-06	-6.4645E-07
1.7640E-08	-8.8420E-08	7.2293E-07	-6.6226E-07
6.4339E-08	-2.2288E-08	-4.8589E-07	-7.6559E-07
2.4619E-08	-4.4512E-08	-5.3814E-07	1.3925E-06
4.6199E-08	3.0535E-08	1.3194E-06	9.5437E-07
7.3990E-08	-1.0031E-07	7.4700E-07	2.7192E-07
1.2046E-07	-6.2571E-08	7.8533E-07	4.7040E-07
6.9980E-08	-1.4724E-07	7.5822E-07	5.2421E-07
1.3490E-08	-1.3666E-07	7.6429E-07	4.3867E-07
-1.7345E-08	-1.6043E-07	8.1944E-07	1.1913E-06
-7.4671E-08	-1.2880E-07	2.3325E-06	5.1732E-07
-8.1463E-08	-6.5696E-08	1.1681E-06	-9.5552E-07
-6.2265E-09	-7.4083E-08	2.7591E-07	1.5271E-07
-5.0642E-08	-2.7569E-08	1.2010E-06	6.4622E-07
2.8260E-08	-6.8313E-08	1.5775E-06	-4.1501E-07
-1.1235E-08	-6.2408E-08	3.8001E-07	-5.9041E-07
8.5616E-09	-9.7844E-08	5.0594E-07	2.1336E-07
1.5879E-08	-1.0192E-07	5.3955E-07	1.3710E-08
1.6097E-09	-1.1450E-07	4.9535E-07	5.1610E-07
-8.9589E-08	-8.2729E-08	1.1399E-06	5.8433E-07
-2.7699E-08	-7.9663E-08	1.5624E-06	-2.5563E-07
-4.5891E-08	-2.6012E-08	1.9805E-07	-9.1542E-07
-1.6883E-08	-2.9435E-08	-9.7898E-08	8.6696E-07
-2.1929E-08	-1.0467E-08	1.3259E-06	3.7596E-07
-8.7053E-09	-3.8575E-09	3.2192E-07	9.2313E-08
1.0613E-08	-5.8596E-08	1.1374E-06	9.3977E-07
4.1993E-08	-8.1538E-08	1.4848E-06	-1.2189E-07
7.4942E-10	-2.7740E-08	9.9879E-07	-1.9598E-07
-1.0369E-08	-5.3456E-08	7.8561E-07	-4.0585E-07
4.1570E-09	-8.0026E-08	3.1101E-07	1.7000E-07
1.2148E-08	-7.8041E-08	1.2144E-06	4.5060E-07
-3.8152E-08	-8.3278E-08	1.0876E-06	-4.0139E-07
-9.0785E-09	-9.2745E-08	1.0180E-06	1.0257E-08
-3.8029E-08	-5.5993E-08	1.2291E-06	-1.1378E-06
-4.8763E-08	-5.5663E-08	-4.0375E-07	-7.1694E-07
-6.3296E-08	-1.9328E-09	3.1251E-07	-1.0455E-07
-1.0243E-09	2.3027E-08	-6.5406E-07	-1.3744E-07
-3.9932E-09	-1.6322E-09	3.8576E-07	1.2633E-06
3.9066E-08	1.0893E-08	9.1982E-07	-5.0194E-08
2.4469E-08	-4.2503E-09	8.6863E-08	4.1470E-08
3.7564E-08	-5.8382E-08	-2.7288E-07	9.6577E-07
6.1999E-08	-2.3528E-08	1.7395E-06	1.8185E-06
5.6418E-08	-4.7391E-08	2.1318E-06	-8.7787E-07
5.1588E-08	-8.9420E-08	2.7609E-07	-5.8303E-07
5.0594E-08	-7.8799E-08	4.1389E-07	-1.1464E-07
2.6349E-08	-6.7643E-08	5.2762E-07	2.4952E-07
4.7391E-08	-7.5869E-08	5.7924E-07	-4.0397E-07
4.7722E-08	-5.3250E-08	-2.6454E-07	4.7304E-07
4.9793E-08	-9.5503E-08	1.0357E-06	9.4739E-07
9.2103E-09	-8.4751E-08	1.2990E-06	-1.3572E-07
6.8907E-08	-4.8972E-08	3.1202E-07	-2.9463E-07
5.2402E-08	-5.2219E-08	7.8142E-07	7.4284E-07
7.1257E-08	-1.0611E-07	1.3851E-06	-4.5208E-07
1.8361E-08	-1.4541E-07	4.5709E-07	-3.8965E-07
1.0509E-08	-1.2157E-07	4.6994E-07	-4.1754E-07
3.0766E-09	-9.3669E-08	3.2353E-07	2.1026E-07
-6.2141E-08	-1.4525E-07	9.9887E-07	-6.1668E-07
-4.9909E-08	-8.2847E-08	-3.4461E-07	-4.8431E-07
-1.6254E-08	-7.2680E-08	3.5178E-07	4.2620E-08
-6.0639E-08	-6.0584E-08	-1.6226E-07	-3.6083E-07
-2.4689E-08	-1.6444E-08	-1.0617E-07	1.9739E-07
2.5585E-09	-5.0595E-08	-1.8838E-07	1.2234E-07
3.6318E-08	-4.2157E-08	-7.6927E-08	7.1171E-07
2.9532E-08	-3.6344E-08	7.9892E-07	2.8571E-07
3.2075E-09	-5.1575E-08	-3.7214E-07	-6.4048E-07
4.6562E-08	-8.8099E-08	-6.7217E-07	1.1350E-06
-2.5735E-09	-4.8533E-08	3.1752E-07	4.1149E-07
3.0592E-08	-5.7236E-08	-5.2516E-07	1.3341E-06
4.4953E-09	-4.5120E-08	1.3349E-06	1.0194E-06
-6.6369E-09	-2.1637E-08	1.4724E-07	2.2236E-07
1.4905E-08	5.4978E-10	6.6071E-07	6.9151E-07
2.2802E-08	5.5823E-09	-1.9167E-07	6.6231E-07
