jMRUI Data Textfile

Filename: Export_to_jmrui.txt

PointsInDataset: 2048
DatasetsInFile: 1
SamplingInterval: 0.250000
ZeroOrderPhase: 0E0
BeginTime: 0E0
TransmitterFrequency: 1.2326E8
MagneticField: 2.8936E0
TypeOfNucleus:  
NameOfPatient:  
DateOfExperiment:  
Spectrometer:  
AdditionalInfo: 
SignalNames:  


Signal and FFT
sig(real)	sig(imag)	fft(real)	fft(imag)
Signal 1 out of 1 in file
2.5857E-06	-2.0900E-07	-1.7153E-06	-7.6436E-07
2.5453E-06	-1.0080E-07	-1.9400E-06	1.4470E-07
1.4803E-06	-8.7970E-07	-9.2075E-07	3.7253E-07
9.2113E-07	-1.3218E-06	-1.2806E-06	2.3079E-07
-2.9856E-07	-1.3817E-06	-6.1231E-07	1.0687E-06
-9.5944E-07	-9.9951E-07	1.2123E-07	1.4280E-07
-1.4285E-06	-3.2725E-07	-7.4730E-07	2.1961E-08
-1.1390E-06	2.3692E-07	-2.6183E-07	5.9738E-07
-7.9605E-07	5.5880E-07	-2.7826E-07	-1.1402E-07
-5.3983E-08	4.6292E-07	-1.0359E-06	5.2266E-07
1.8745E-07	2.4328E-07	-8.3704E-08	1.4991E-06
3.4299E-07	9.1898E-08	1.1484E-06	4.9163E-07
1.1283E-07	-2.3949E-07	1.8786E-07	-6.2318E-07
-1.3388E-07	-3.3242E-07	-3.9213E-07	1.0562E-07
-4.6429E-07	-2.8456E-07	-1.8045E-07	6.1600E-08
-4.7883E-07	-1.0763E-07	-6.1339E-07	4.9427E-07
-5.3068E-07	5.9170E-09	2.9141E-07	7.8834E-07
-3.3525E-07	3.2289E-08	-2.5943E-07	-1.2833E-07
-3.1551E-07	1.3980E-08	-5.7151E-07	1.5262E-06
-2.9230E-07	-5.6553E-08	1.4577E-06	9.4396E-07
-4.5199E-07	-1.0812E-07	5.4025E-07	-3.9656E-07
-5.3764E-07	2.3259E-08	-3.4421E-09	-1.8489E-07
-6.8474E-07	1.5029E-07	-8.3103E-07	4.8899E-07
-5.9033E-07	3.2718E-07	6.1149E-07	1.4852E-06
-4.4733E-07	4.9825E-07	7.1519E-07	-2.6997E-07
-1.5664E-07	4.5520E-07	-5.4298E-07	5.3290E-07
8.8646E-09	2.7518E-07	2.5734E-07	1.1303E-06
1.0044E-07	1.6191E-07	5.9130E-07	9.7801E-07
-3.2280E-08	6.6729E-08	7.4728E-07	6.8121E-07
-1.4508E-07	2.0546E-08	7.5407E-07	1.0835E-06
-3.8195E-07	4.3706E-08	2.1137E-06	3.1445E-07
-4.8029E-07	3.0273E-07	4.8069E-07	-1.4577E-06
-4.3691E-07	4.5743E-07	-7.2614E-07	4.3265E-07
-2.3663E-07	6.4883E-07	4.2498E-07	6.0300E-07
-8.7116E-08	5.5924E-07	-9.1126E-08	7.0829E-07
1.2590E-07	4.7103E-07	8.9424E-07	1.2693E-06
1.5585E-07	3.3021E-07	1.0395E-06	1.2107E-07
1.8552E-07	1.4929E-07	1.9366E-07	7.2335E-07
8.2537E-08	1.6656E-07	1.6226E-06	9.6808E-07
8.6470E-08	2.1793E-07	1.1648E-06	-6.5109E-07
8.2496E-08	2.5712E-07	3.3941E-07	-1.4634E-07
1.6433E-07	2.4590E-07	-2.5582E-07	-1.1314E-07
2.5526E-07	1.9116E-07	2.0065E-07	1.6613E-06
3.3362E-07	7.2022E-08	1.6354E-06	1.4664E-07
2.0940E-07	-7.0806E-08	2.1388E-07	2.0489E-07
1.4748E-07	-1.5519E-07	8.2657E-07	1.9265E-07
-1.6759E-08	-1.8843E-07	-9.9424E-08	6.2737E-07
-8.8563E-08	-4.1445E-08	1.2037E-06	9.5647E-07
-1.4199E-07	6.6668E-08	8.0257E-07	2.5948E-07
-5.1835E-09	1.6868E-07	1.0681E-06	2.1089E-07
7.5155E-08	1.5631E-07	2.3468E-07	-8.6925E-08
1.5663E-07	1.1179E-07	8.5475E-08	6.2321E-07
1.3476E-07	6.5038E-09	3.1645E-07	1.4695E-06
1.1026E-07	-4.3766E-08	1.7824E-06	1.0432E-06
2.9058E-09	-1.2889E-07	1.0698E-06	2.7277E-07
-1.5494E-07	-1.2512E-07	1.3490E-06	3.9745E-07
-2.2446E-07	4.7667E-08	8.5565E-07	4.4226E-07
-1.2446E-07	1.1422E-07	2.0855E-06	1.8703E-07
-4.2684E-08	2.1238E-07	4.5249E-07	-1.1469E-06
1.1959E-07	2.1350E-07	2.1324E-07	4.9864E-07
2.0482E-07	1.5072E-07	4.5096E-07	2.1308E-07
2.0921E-07	9.2180E-09	8.4954E-07	8.4848E-07
1.3733E-07	-1.0899E-07	9.5525E-07	-1.3097E-07
2.1246E-08	-1.6187E-07	4.0331E-07	4.3179E-07
-1.1599E-07	-1.1587E-07	6.9697E-07	2.2115E-07
-1.4908E-07	2.3573E-08	7.8603E-08	5.7633E-07
-1.6223E-07	1.3714E-07	6.6189E-07	1.5341E-06
-1.0489E-07	1.5345E-07	2.0752E-06	9.5573E-07
-6.6267E-09	1.2283E-07	1.3669E-06	-4.7665E-07
8.9717E-08	1.6295E-07	6.3409E-07	2.3990E-07
5.6059E-08	8.9139E-08	9.6217E-07	1.3555E-07
7.3420E-08	6.3103E-08	5.3066E-07	3.5016E-07
4.3314E-08	2.2321E-09	1.1068E-06	4.9665E-07
-2.0328E-08	1.8991E-08	5.9601E-07	-1.1176E-07
-5.8518E-08	1.2863E-07	3.8824E-07	8.8540E-07
-9.6104E-09	1.8746E-07	9.8279E-07	4.9152E-07
6.5652E-08	1.9762E-07	4.9696E-07	1.0493E-06
1.1920E-07	1.5946E-07	1.5507E-06	9.5998E-07
1.3799E-07	5.1710E-08	1.2872E-06	9.1036E-07
9.3065E-08	1.2812E-08	2.3693E-06	1.9114E-07
9.5652E-09	3.2711E-09	7.0249E-07	-3.0900E-07
-6.1501E-08	7.2700E-08	1.8647E-06	5.8630E-07
-8.9175E-08	1.4772E-07	7.9186E-07	-9.0069E-07
-1.1799E-08	1.8030E-07	1.0007E-06	1.1537E-06
7.2883E-08	2.1704E-07	2.3177E-06	-8.6687E-07
1.7346E-07	1.4113E-07	-2.4435E-08	-1.1399E-06
2.1996E-07	1.1035E-07	1.4189E-09	5.5607E-07
2.7641E-07	-1.4347E-08	1.1855E-06	4.1227E-07
2.0723E-07	-1.0557E-07	5.5650E-07	-4.6501E-07
1.7039E-07	-1.4827E-07	8.0689E-08	5.3624E-07
9.7450E-09	-1.6077E-07	1.0892E-06	6.5245E-07
-5.2382E-08	-6.2668E-08	8.8469E-07	-5.8168E-07
-6.7289E-08	-1.3203E-08	-8.7479E-07	2.1151E-07
-4.5889E-10	1.3494E-07	4.5712E-07	1.9654E-06
6.7612E-08	1.5582E-07	1.5267E-06	9.4874E-07
1.7695E-07	1.2914E-07	1.5041E-06	2.3822E-07
1.9926E-07	1.7958E-08	4.9018E-07	-2.8648E-07
2.2066E-07	-4.8922E-08	8.0162E-08	6.7995E-07
1.6333E-07	-1.3927E-07	2.3707E-07	1.2876E-06
1.2906E-07	-2.0255E-07	1.4690E-06	1.5459E-06
5.2724E-08	-2.1213E-07	1.0678E-06	5.4352E-07
1.1179E-08	-1.4091E-07	1.4870E-06	1.5116E-06
-3.9954E-08	-1.3376E-07	1.9136E-06	1.3517E-07
-1.7348E-08	-1.1047E-07	1.1839E-06	3.5247E-07
-5.7347E-08	-6.4577E-08	8.4647E-07	1.4216E-07
-2.8450E-08	-1.0232E-07	1.0793E-06	1.4800E-06
-8.2263E-08	-6.2954E-08	2.2424E-06	2.8658E-08
-5.8987E-08	-3.5127E-08	5.3028E-07	5.8079E-08
-6.2676E-08	1.4108E-08	1.2449E-06	9.7481E-07
-1.3557E-08	5.2907E-08	1.5963E-06	4.5601E-07
3.2694E-08	6.2064E-08	1.1172E-06	1.1023E-07
6.6894E-08	2.0658E-08	1.0615E-06	1.0884E-06
7.1156E-08	-1.0560E-08	2.2295E-06	4.0617E-07
5.6125E-08	-6.4688E-08	1.2103E-06	-2.0081E-07
2.8990E-08	-1.0805E-07	1.2356E-06	4.7746E-07
-5.8765E-09	-8.0998E-08	1.5968E-06	2.8481E-07
-5.8614E-08	-4.5871E-08	1.3724E-06	-4.0055E-08
-7.9840E-08	-6.6184E-08	1.4886E-06	2.8122E-07
-9.8991E-08	-1.1273E-08	1.4295E-06	-9.2068E-07
-3.6004E-09	4.2774E-08	-5.0985E-07	2.4841E-07
6.1366E-09	3.8487E-08	1.6170E-06	1.6367E-06
7.9581E-08	3.5372E-08	1.6721E-06	-2.6514E-07
1.1931E-07	1.3654E-08	9.0488E-07	4.2178E-07
7.2813E-08	-7.0437E-08	1.1673E-06	4.7603E-07
3.3435E-08	-1.1362E-07	1.6638E-06	1.0358E-06
-4.7675E-08	-9.0708E-08	2.3851E-06	-3.1838E-07
-2.1249E-08	-2.6901E-08	9.7880E-07	-4.0333E-07
-3.8982E-08	-1.2386E-08	1.5634E-06	8.7696E-08
-5.6534E-08	1.9592E-08	1.1766E-06	-5.9029E-07
-8.7845E-09	3.1707E-08	7.6246E-07	-1.4109E-07
8.0318E-09	1.7163E-09	8.1914E-07	1.5515E-07
1.2099E-08	-1.3571E-08	1.1108E-06	2.6147E-07
-9.0113E-10	-1.9274E-08	1.2610E-06	2.1055E-07
1.7072E-08	-1.4119E-08	1.5806E-06	-3.3457E-07
-1.0910E-08	3.2926E-08	5.8693E-07	-7.4394E-07
4.5247E-08	2.3233E-08	2.5480E-07	4.4629E-08
7.6460E-08	1.1367E-08	4.3077E-07	6.2282E-07
8.7053E-08	7.9235E-09	1.4171E-06	4.3079E-07
1.3488E-07	-5.5969E-08	4.4040E-07	-3.4211E-07
7.6430E-08	-7.8296E-08	6.3254E-07	1.1015E-06
4.2743E-08	-1.3462E-07	1.6426E-06	2.4237E-08
-2.2551E-08	-1.1547E-07	2.5979E-07	-4.2161E-07
-7.1301E-08	-1.2751E-07	-1.4388E-07	1.1183E-06
-6.7580E-08	-3.4059E-08	1.6096E-06	1.4469E-06
-7.4921E-08	-6.2698E-08	1.3249E-06	7.7907E-08
-1.2940E-08	-8.8766E-09	1.1594E-06	7.5222E-07
-1.0414E-08	-7.9170E-09	1.1865E-06	-1.5962E-08
3.0123E-08	-5.4965E-09	6.9137E-07	9.2536E-07
1.2052E-08	-2.0858E-08	1.6250E-06	6.7375E-07
-1.2567E-08	-7.6824E-08	1.4549E-06	6.3374E-07
-3.7512E-08	-8.0971E-08	1.9748E-06	9.7502E-10
-5.9518E-08	-9.7098E-08	9.7774E-07	-2.5948E-07
-4.5373E-09	-4.2806E-08	1.1721E-06	3.3187E-07
-4.5587E-08	-6.8621E-08	1.3351E-06	-3.1674E-08
-5.5814E-08	-5.6209E-09	9.8053E-07	-1.8539E-07
-5.8242E-08	-5.1211E-09	6.8503E-07	4.5891E-09
-5.6196E-08	-8.0455E-10	5.1316E-07	4.8763E-07
-1.2920E-09	1.5816E-08	1.3777E-06	6.9944E-07
1.6170E-08	2.3376E-08	7.7035E-07	-3.5714E-07
-2.5514E-08	6.9838E-09	3.3383E-07	1.2848E-06
9.8429E-09	-2.2919E-08	1.9085E-06	6.5066E-07
1.5229E-08	-2.4199E-08	9.1575E-07	3.3279E-07
2.7437E-08	-3.1735E-08	1.6138E-06	6.9660E-07
1.7318E-08	-1.9330E-08	1.4588E-06	2.0932E-07
-9.5258E-09	-2.0369E-08	1.7050E-06	-9.0945E-08
-1.4147E-08	-1.4716E-08	5.4397E-07	-4.0520E-07
-9.3654E-08	-5.3527E-08	8.9818E-07	9.3907E-07
-6.0151E-08	-3.5540E-08	1.5693E-06	2.5121E-08
-7.1814E-08	2.1962E-08	7.5559E-07	1.6433E-07
-3.6013E-08	1.3418E-08	1.1414E-06	4.2945E-07
-9.7017E-09	1.4153E-08	1.0228E-06	5.2530E-07
-9.0577E-09	8.6716E-08	1.9234E-06	3.5161E-07
1.9948E-08	3.0970E-08	8.9078E-07	-9.1808E-07
5.7276E-08	4.1586E-08	1.0394E-07	6.3464E-07
3.1595E-08	-9.2112E-09	1.0022E-06	6.6955E-07
-7.6932E-10	1.6925E-08	1.0264E-06	1.1475E-06
-1.1302E-08	1.3748E-09	2.1461E-06	3.4375E-07
2.0589E-08	-5.6672E-09	8.4465E-07	-2.4280E-08
4.7091E-09	-3.7564E-08	1.6135E-06	7.9631E-07
-1.2753E-08	-2.7597E-08	1.5933E-06	-1.6765E-07
8.8453E-09	-5.8565E-08	1.4053E-06	1.2078E-07
6.8318E-09	-6.1644E-08	1.4343E-06	-4.4095E-07
2.4159E-08	-1.5131E-08	7.7515E-07	-3.9639E-07
1.0176E-08	-7.1559E-08	4.4575E-07	-5.1753E-08
-6.9832E-09	-4.7955E-08	5.6034E-07	7.4411E-07
-2.4559E-08	-8.7608E-08	1.5959E-06	5.3760E-07
-5.7763E-08	-9.5758E-08	1.0314E-06	-4.5929E-07
-6.3143E-08	-5.4195E-08	3.6833E-07	4.2103E-07
-2.7656E-08	-8.3210E-08	1.1426E-06	5.0820E-07
-4.3088E-08	-4.2830E-08	6.8770E-07	2.5887E-07
-8.6371E-08	-3.5508E-08	8.8905E-07	9.7292E-07
-5.5142E-08	-2.6413E-08	1.6124E-06	7.6971E-07
-5.6964E-08	-3.7878E-08	1.6738E-06	2.2880E-07
-1.0143E-08	5.7765E-09	1.6205E-06	-8.8769E-08
-5.6133E-08	-1.2479E-08	9.2802E-07	-6.9289E-07
-2.5321E-08	2.1680E-08	1.0639E-07	5.4860E-07
-8.1632E-09	5.6889E-08	1.4690E-06	8.1604E-07
-1.5890E-08	3.1958E-08	1.0526E-06	3.6241E-07
9.5637E-09	-4.0368E-08	2.0083E-06	6.9496E-07
5.8939E-09	-2.5287E-08	1.6137E-06	-8.6204E-07
-6.6920E-08	2.8502E-08	6.7420E-07	-9.5953E-08
-5.6778E-08	4.8077E-09	1.0253E-06	9.2522E-08
-3.6954E-08	1.4042E-08	1.4473E-06	2.3348E-07
-7.1397E-08	1.3445E-08	1.4069E-06	-1.0864E-06
6.9153E-09	3.3733E-10	-2.8541E-07	-4.4652E-07
-5.1188E-09	1.8216E-08	5.5805E-07	6.9134E-07
