jMRUI Data Textfile

Filename: Export_to_jmrui.txt

PointsInDataset: 2048
DatasetsInFile: 1
SamplingInterval: 0.250000
ZeroOrderPhase: 0E0
BeginTime: 0E0
TransmitterFrequency: 1.2326E8
MagneticField: 2.8936E0
TypeOfNucleus:  
NameOfPatient:  
DateOfExperiment:  
Spectrometer:  
AdditionalInfo: 
SignalNames:  


Signal and FFT
sig(real)	sig(imag)	fft(real)	fft(imag)
Signal 1 out of 1 in file
2.2267E-06	-3.6614E-07	-1.2715E-07	-6.6579E-07
8.8660E-07	-1.5167E-07	-2.5714E-07	8.6198E-07
3.5815E-07	-3.2510E-07	1.3032E-06	1.6603E-07
2.4846E-07	-3.8312E-07	1.4500E-07	1.5761E-07
-1.7025E-07	-4.3466E-07	1.0517E-06	2.3821E-07
-3.3050E-07	-3.3206E-07	-2.7025E-08	6.0995E-07
-5.2844E-07	-4.3983E-08	2.0486E-06	1.2271E-06
-3.4924E-07	5.5420E-08	1.4756E-06	-7.4705E-07
-2.1753E-07	1.0073E-07	7.3311E-07	-1.6344E-07
2.4125E-08	-1.3144E-08	2.7603E-07	2.1919E-07
8.5930E-08	-1.4589E-07	1.2319E-06	1.1605E-06
1.0547E-07	-1.6873E-07	1.6881E-06	1.0383E-07
-5.4439E-08	-1.9559E-07	1.2989E-06	9.0478E-08
-2.4948E-07	-2.0494E-07	1.1325E-06	-6.5600E-08
-3.3029E-07	-1.1912E-07	8.6941E-07	4.3924E-07
-3.2997E-07	1.2825E-08	1.5403E-06	7.5178E-07
-2.9341E-07	5.9593E-08	1.8239E-06	1.4264E-07
-1.1377E-07	3.0866E-08	1.6774E-06	1.9432E-07
-1.3989E-07	2.2344E-08	1.9984E-06	-4.6170E-07
-9.5725E-09	-7.9202E-08	8.3350E-07	-5.6281E-07
-1.5244E-07	-1.2733E-07	1.1071E-06	4.6138E-07
-1.8522E-07	-5.0346E-08	1.8386E-06	4.2959E-08
-2.6820E-07	-5.4908E-08	1.1736E-06	-5.5338E-07
-2.6407E-07	3.1907E-08	1.1555E-06	5.8367E-07
-1.7546E-07	1.3245E-07	2.1472E-06	-6.3016E-07
-1.0142E-07	1.5137E-07	2.4173E-07	-4.1664E-07
2.4047E-08	6.5937E-08	1.5363E-06	6.5271E-07
7.2792E-08	-1.4232E-08	1.2766E-06	-3.4090E-07
-3.4157E-08	-2.9241E-08	1.2441E-06	-1.0134E-08
-9.3620E-08	-3.9167E-08	5.0417E-07	7.7496E-08
-2.1892E-07	-2.0924E-08	1.6970E-06	1.3220E-06
-1.9551E-07	9.5428E-08	2.1719E-06	-4.0540E-07
-2.0896E-07	1.8553E-07	1.3416E-06	7.4282E-08
-1.4802E-07	2.2060E-07	1.8987E-06	-4.9401E-07
-6.8466E-08	2.5843E-07	7.2044E-07	-5.1856E-07
3.2959E-08	2.3028E-07	1.0156E-06	1.9121E-07
5.5949E-08	1.1275E-07	7.5205E-07	8.0568E-08
9.2878E-08	4.7290E-08	1.0463E-06	1.0099E-06
-3.1917E-08	1.3672E-07	1.7938E-06	5.7399E-07
-1.6395E-08	1.6855E-07	1.8271E-06	5.2767E-07
3.2730E-08	2.0931E-07	1.9182E-06	-3.2608E-07
1.6673E-07	2.2233E-07	7.3211E-07	4.6694E-07
1.6503E-07	1.4077E-07	2.3928E-06	1.1032E-06
1.9710E-07	6.0484E-08	2.3080E-06	-2.0598E-07
1.6327E-07	7.1718E-09	2.1765E-06	-4.0466E-08
1.1203E-07	-2.8906E-08	2.0859E-06	-4.9389E-07
6.0375E-08	-3.5854E-08	2.0865E-06	-6.1782E-07
-2.9040E-09	2.1144E-09	1.3721E-06	-1.2345E-06
-4.5574E-08	6.3555E-08	7.0855E-07	-3.5807E-07
-1.9090E-08	1.1134E-07	1.1434E-06	-4.8069E-08
2.6954E-08	1.5213E-07	1.0822E-06	-3.7316E-08
1.4087E-07	7.0170E-08	1.2206E-06	3.0851E-07
1.1762E-07	2.5705E-08	1.7041E-06	1.4743E-07
9.0989E-08	-3.5070E-08	1.5472E-06	-3.4337E-07
-1.2916E-08	-6.5411E-08	8.9470E-07	-2.8284E-07
-3.8692E-08	1.5645E-08	1.0893E-06	7.0765E-07
-5.6462E-08	6.2183E-08	1.9276E-06	-1.3528E-07
-5.0369E-08	7.0107E-08	5.2010E-07	4.1918E-08
-2.2680E-08	1.2563E-07	1.6020E-06	1.0802E-06
4.3840E-08	1.0849E-07	1.6752E-06	4.4448E-07
8.0935E-08	9.4393E-08	2.3720E-06	7.1554E-07
8.2322E-08	6.7165E-08	2.1221E-06	-4.4190E-07
5.5885E-08	2.3670E-08	1.9436E-06	9.8752E-08
5.6308E-08	-3.1640E-08	1.8937E-06	-7.4514E-07
5.1183E-08	9.5273E-09	1.2690E-06	-1.8436E-08
3.3933E-08	-2.1691E-08	1.8442E-06	-3.8109E-07
-5.0179E-08	1.7933E-09	9.5040E-07	-2.8924E-07
-8.3575E-08	3.4148E-08	1.3559E-06	3.4005E-07
-1.3007E-07	1.6260E-08	1.3901E-06	1.4100E-07
-8.0409E-08	1.0302E-07	1.5113E-06	6.4786E-07
-8.0649E-08	9.8825E-08	2.2201E-06	2.8961E-07
3.5748E-09	1.1912E-07	1.7629E-06	1.1694E-07
-6.4201E-09	1.0152E-07	2.7557E-06	2.6583E-07
-2.7961E-08	1.2352E-07	2.1874E-06	-1.4980E-06
-3.6709E-08	1.7136E-07	9.2157E-07	-5.5671E-07
1.0354E-07	1.5007E-07	1.2047E-06	-5.2838E-07
8.1483E-08	1.1919E-07	6.1603E-07	3.1622E-07
9.1203E-08	5.4986E-08	1.6821E-06	4.6360E-07
3.5847E-08	5.0098E-08	1.2606E-06	5.4467E-07
-7.4328E-09	1.8484E-08	2.7828E-06	7.4915E-07
-6.9502E-08	4.9326E-08	2.2203E-06	-1.2640E-06
-4.9539E-08	1.0340E-07	6.5775E-07	-1.8997E-07
-2.9377E-08	1.4142E-07	1.7637E-06	8.4867E-07
-4.0802E-08	1.4619E-07	2.5759E-06	-1.7099E-07
2.7226E-08	1.6319E-07	1.6575E-06	-6.9857E-07
7.7745E-08	1.6472E-07	1.5277E-06	-1.6225E-07
9.3215E-08	7.1970E-08	1.5754E-06	5.5256E-08
1.3462E-07	1.0040E-07	2.5107E-06	-1.6044E-07
9.0785E-08	2.0439E-08	1.2851E-06	-1.4216E-06
8.2391E-08	-1.5545E-08	1.0163E-06	5.2840E-07
2.0341E-08	2.9522E-09	2.2353E-06	-7.5161E-07
-2.9277E-08	3.1430E-08	5.4724E-07	-3.1600E-07
-2.4597E-08	5.6057E-08	1.8620E-06	3.4780E-07
3.3456E-08	7.9384E-08	1.6039E-06	-5.3125E-07
4.5053E-08	5.5349E-08	1.1868E-06	-5.3749E-07
3.2651E-08	8.5431E-08	5.8778E-07	4.1297E-07
-1.2287E-09	4.6825E-08	2.2101E-06	7.3175E-07
4.4013E-08	-9.0981E-09	1.8552E-06	-3.8854E-07
7.1996E-08	2.6156E-08	2.0151E-06	-2.7411E-07
2.3428E-08	-5.8606E-09	1.0858E-06	-9.4579E-07
2.3150E-08	3.9844E-10	1.0624E-06	4.1037E-07
-4.9874E-09	-4.7978E-08	1.7243E-06	-2.3722E-07
-3.5945E-08	-3.8679E-09	1.1450E-06	-1.4805E-07
-1.6214E-08	-6.4493E-09	1.2554E-06	1.5193E-07
-1.4215E-08	2.1778E-09	1.5480E-06	1.0065E-07
-1.0741E-08	-4.0845E-09	8.7494E-07	8.8500E-08
-2.0260E-08	1.6876E-08	1.8687E-06	1.5337E-06
4.8039E-09	-4.7850E-10	3.2424E-06	-3.8301E-07
-2.7689E-08	5.9500E-08	1.5889E-06	-9.2396E-07
-3.2305E-08	2.7564E-08	1.7117E-06	-4.6403E-07
-3.7096E-08	6.7596E-08	1.3772E-06	-6.7496E-07
-1.1233E-08	4.9840E-08	1.2748E-06	-5.9089E-07
3.0526E-09	5.0711E-08	7.0009E-07	-5.2898E-07
-1.9891E-08	2.5210E-08	6.4877E-07	3.5030E-07
-3.6110E-08	-1.8450E-08	1.4924E-06	5.2515E-07
-1.0072E-08	-3.1010E-08	1.4430E-06	-2.3127E-07
-6.3314E-08	1.7719E-09	9.1761E-07	3.2232E-07
-4.5043E-08	2.7577E-08	1.6304E-06	3.6095E-07
-2.5737E-08	3.9434E-08	1.3189E-06	8.0602E-08
-1.0280E-07	6.0456E-08	1.4384E-06	1.8002E-07
-4.0435E-08	9.2902E-08	1.0582E-06	2.6848E-07
-1.8068E-08	2.1678E-08	1.5279E-06	7.3027E-07
1.3448E-08	5.4449E-08	1.6596E-06	5.4462E-07
4.4916E-08	-1.8681E-09	2.3404E-06	5.0263E-07
2.2029E-09	-4.4517E-08	1.9146E-06	-6.4222E-07
-4.6558E-08	2.0841E-08	1.2250E-06	5.7321E-08
-6.5854E-08	2.4305E-08	1.6660E-06	-4.3644E-08
-7.8074E-08	3.2983E-08	1.1628E-06	-1.3788E-07
-3.5499E-08	-5.2237E-09	9.7593E-07	4.2170E-07
-4.4256E-08	6.0343E-08	1.5611E-06	8.5723E-07
-3.2763E-08	3.8822E-08	1.9061E-06	4.6309E-07
-5.5316E-08	6.5263E-08	2.1801E-06	2.3254E-07
-3.0123E-08	7.5507E-08	1.4806E-06	-7.1548E-07
-1.3516E-08	6.6052E-08	6.0327E-07	6.1613E-07
-7.2028E-10	4.0818E-08	1.5698E-06	7.8580E-07
7.7580E-09	3.6419E-08	1.2454E-06	1.3277E-06
3.1187E-08	3.8378E-08	3.1037E-06	1.6049E-06
1.3984E-08	-4.8987E-09	3.3293E-06	-2.4166E-07
1.8375E-08	-4.1831E-08	2.4465E-06	-7.2996E-07
1.4292E-09	-4.2716E-08	1.8537E-06	-7.3196E-07
4.7364E-09	-4.6577E-08	1.3614E-06	-5.3443E-07
-4.3830E-08	-4.2603E-08	1.1984E-06	2.6232E-07
-4.5944E-08	-1.3809E-08	1.9344E-06	1.6024E-07
-4.6809E-08	8.8764E-09	1.3453E-06	1.8000E-07
-5.0087E-08	-1.4787E-08	2.3748E-06	5.9280E-07
-3.9472E-08	-1.0140E-08	1.9055E-06	-7.0317E-07
-3.5263E-08	1.1984E-08	1.3898E-06	4.5492E-07
2.3836E-08	-8.6022E-09	2.4164E-06	-4.7334E-08
-3.4989E-08	-2.5913E-08	1.5551E-06	-4.8781E-07
-5.6721E-08	6.3607E-09	1.4417E-06	9.6102E-08
-5.4906E-08	3.6775E-09	1.8001E-06	2.6866E-07
-9.5760E-08	-2.0666E-08	1.9420E-06	-2.9321E-07
-5.5279E-08	5.3627E-08	1.0924E-06	4.6991E-08
-3.0211E-08	5.7672E-09	2.1507E-06	7.4749E-07
-9.0456E-08	4.1799E-08	2.3036E-06	-7.4719E-07
-5.0919E-08	9.6962E-09	8.9688E-07	-5.4341E-07
-4.9191E-08	4.3620E-08	8.7954E-07	4.5290E-07
-1.8386E-08	3.1653E-08	1.4442E-06	9.4440E-07
-4.5916E-08	4.2607E-10	2.0473E-06	7.1493E-07
-2.6664E-08	4.3753E-09	1.9959E-06	5.4452E-07
-4.9946E-08	1.8627E-08	2.5066E-06	6.9006E-07
-4.3822E-08	6.3692E-09	2.9435E-06	-4.2597E-07
-3.8681E-08	-2.6466E-11	1.5518E-06	-9.8437E-07
-7.7588E-09	-7.3879E-10	1.2338E-06	3.0583E-08
-3.6236E-08	-5.5743E-08	1.1759E-06	9.9137E-08
-7.1215E-08	-1.6833E-08	1.4334E-06	1.2301E-06
-6.0066E-08	-3.5241E-09	2.6813E-06	4.4057E-07
-9.6179E-08	3.2101E-08	1.4886E-06	1.7858E-07
-5.6385E-08	2.5717E-08	2.4973E-06	1.3759E-06
-8.5465E-08	5.2831E-08	3.2705E-06	-3.5659E-07
-7.2570E-08	3.8711E-08	1.5644E-06	-2.8238E-07
-1.1755E-08	2.2400E-08	2.5753E-06	8.0983E-07
-5.6870E-08	-8.1207E-09	2.7321E-06	-4.3756E-07
-2.1816E-08	-4.8308E-09	2.2975E-06	1.7745E-07
1.0144E-08	1.8101E-08	3.0447E-06	-3.8825E-07
-2.2712E-09	-3.5889E-09	2.4384E-06	-7.1284E-07
-3.4003E-08	6.6109E-09	2.5598E-06	-9.5062E-07
-3.3258E-08	-1.4973E-08	1.6511E-06	-1.2754E-06
-1.3848E-08	-3.9609E-08	1.2432E-06	-3.9407E-07
-3.8384E-08	-1.6994E-08	1.7268E-06	3.8283E-09
-2.2256E-08	-8.1384E-09	1.9960E-06	7.4180E-08
-3.7591E-08	7.8257E-10	2.7886E-06	-2.5653E-07
-4.0298E-08	-1.9133E-08	2.0291E-06	-1.4245E-06
-2.3723E-08	-2.2596E-09	1.4293E-06	-5.1930E-07
-3.0371E-08	-2.6193E-08	1.5297E-06	-8.4418E-07
1.9883E-08	-2.3875E-08	1.1350E-06	8.3854E-08
-1.6789E-08	-5.5223E-08	1.9043E-06	-1.7634E-07
-2.5806E-08	-4.3587E-08	1.5984E-06	2.4883E-07
-5.0515E-08	-6.9028E-08	2.5113E-06	-1.5963E-07
-4.2576E-08	-4.1678E-08	2.1161E-06	-1.7285E-07
-4.5891E-08	-7.3752E-08	2.9148E-06	-1.0409E-06
-7.5572E-08	-4.5344E-08	1.1840E-06	-1.2921E-06
-4.7641E-08	-3.1019E-08	1.9652E-06	-3.9896E-07
-6.0894E-08	-2.2104E-08	1.4514E-06	-1.2146E-06
-5.4292E-08	2.6550E-08	1.5003E-06	-4.4470E-07
-6.2217E-08	-1.9258E-08	1.5723E-06	-1.2041E-06
-5.8413E-08	-8.1651E-09	5.3320E-07	-8.4717E-07
-3.8780E-08	-2.5651E-08	9.6180E-07	2.9541E-07
-5.5331E-08	-5.6349E-08	1.7821E-06	-4.5185E-07
-7.3519E-08	-4.5675E-08	7.9985E-07	-3.8789E-07
-3.6501E-08	-2.7837E-08	1.4511E-06	7.5471E-08
-4.5157E-08	-4.3670E-08	1.1570E-06	-1.3108E-07
-7.2244E-08	-2.8280E-08	1.7168E-06	1.9084E-07
-2.7688E-08	-4.4032E-08	1.5813E-06	-4.0840E-07
-2.3375E-09	-8.2587E-08	1.3762E-06	-1.9218E-07
