jMRUI Data Textfile

Filename: Export_to_jmrui.txt

PointsInDataset: 2048
DatasetsInFile: 1
SamplingInterval: 0.250000
ZeroOrderPhase: 0E0
BeginTime: 0E0
TransmitterFrequency: 1.2326E8
MagneticField: 2.8936E0
TypeOfNucleus:  
NameOfPatient:  
DateOfExperiment:  
Spectrometer:  
AdditionalInfo: 
SignalNames:  


Signal and FFT
sig(real)	sig(imag)	fft(real)	fft(imag)
Signal 1 out of 1 in file
1.9440E-06	-5.7742E-07	-6.1068E-07	2.2491E-08
1.2487E-06	-2.6020E-07	2.3214E-07	-1.0681E-07
6.3132E-07	-4.9467E-07	-8.6748E-07	1.5741E-07
5.0719E-07	-5.9863E-07	5.7164E-07	7.1026E-07
-1.4623E-07	-6.7114E-07	-6.3496E-08	-1.7861E-08
-3.5133E-07	-5.8508E-07	9.1746E-07	4.7651E-07
-6.6788E-07	-2.7402E-07	-5.7337E-08	-7.2970E-07
-4.8769E-07	-1.0673E-07	2.9234E-07	9.7111E-07
-3.1256E-07	3.9643E-08	1.1159E-06	-4.1933E-07
6.0091E-08	-5.8838E-08	5.1695E-07	-4.3797E-07
1.2944E-07	-1.2125E-07	-9.7587E-08	-9.7082E-07
1.9248E-07	-2.7335E-07	-4.7108E-07	4.0475E-07
-5.0180E-08	-2.8606E-07	2.8415E-07	1.1328E-07
-1.7581E-07	-3.1361E-07	3.0294E-07	4.0512E-07
-3.5432E-07	-2.3759E-07	2.2311E-07	-3.0330E-07
-3.2491E-07	-1.6419E-08	-1.8026E-08	9.8148E-07
-3.3580E-07	-9.7141E-08	1.1391E-06	1.8976E-07
-1.6877E-07	-3.9470E-09	8.4636E-07	4.8790E-07
-7.1425E-08	-1.0033E-08	1.6046E-06	-1.1643E-06
-3.5094E-08	-1.3790E-07	-6.9169E-07	-6.7620E-07
-1.3179E-07	-1.8369E-07	5.0145E-07	-3.8812E-07
-2.3704E-07	-1.7168E-07	-1.5655E-06	-2.0643E-07
-4.1314E-07	-9.3184E-08	3.1822E-07	1.8467E-06
-3.6605E-07	4.9850E-08	5.4464E-07	1.6770E-07
-3.1901E-07	2.3081E-07	2.4294E-07	1.1636E-06
-7.7913E-08	2.8312E-07	1.2516E-06	1.1052E-06
4.3796E-09	1.1700E-07	1.9237E-06	5.3756E-08
1.1665E-07	6.4183E-08	5.0581E-07	-7.6612E-07
2.1380E-08	-3.8245E-08	3.6161E-07	3.3132E-07
-1.0023E-07	-4.2941E-08	4.6446E-07	4.5797E-07
-2.4897E-07	1.6027E-08	1.6321E-06	5.8926E-07
-2.4283E-07	1.4060E-07	7.5370E-07	-1.1802E-06
-2.6203E-07	2.8673E-07	-1.7077E-07	5.8073E-07
-1.4172E-07	4.3239E-07	1.2198E-06	6.5745E-08
-3.5370E-08	4.0322E-07	-1.4094E-07	-2.7435E-07
7.4414E-08	3.3842E-07	2.4142E-07	1.1775E-06
9.8737E-08	2.2407E-07	1.2937E-06	5.4872E-07
1.3614E-07	1.3112E-07	7.7713E-07	2.1233E-07
5.3560E-08	1.9517E-07	8.7599E-07	1.4417E-07
4.9516E-08	2.1660E-07	1.9343E-07	4.8878E-07
7.2436E-08	3.1313E-07	1.1212E-06	8.9705E-07
1.2175E-07	2.9988E-07	5.8141E-07	6.6943E-07
1.9973E-07	2.8983E-07	1.9543E-06	1.3713E-06
2.2385E-07	1.5673E-07	1.6943E-06	-2.7758E-07
1.7061E-07	4.3543E-08	1.8240E-06	3.3429E-07
1.1986E-07	4.9768E-08	1.0132E-06	-1.3078E-06
5.0247E-08	6.4087E-08	3.2898E-07	1.1225E-06
3.7851E-08	1.0999E-07	2.3428E-06	-4.8871E-07
2.6158E-08	1.3198E-07	-8.7868E-08	-4.1729E-07
3.9889E-08	1.3892E-07	1.3318E-06	7.0990E-07
4.1053E-08	2.3351E-07	9.7324E-07	-1.1216E-07
8.0748E-08	2.0611E-07	1.6251E-06	2.4783E-07
6.1557E-08	2.0200E-07	7.9853E-07	-1.2315E-06
7.9087E-08	1.0875E-07	-3.7526E-07	6.4377E-07
3.9470E-08	7.1592E-08	1.4165E-06	7.7417E-07
-2.5664E-08	6.8180E-08	6.0926E-07	2.6239E-07
-8.7092E-08	1.2159E-07	1.5249E-06	1.0191E-06
-2.4982E-08	1.9083E-07	1.2839E-06	-4.7771E-08
-1.4521E-08	2.5307E-07	1.4169E-06	8.8032E-07
6.8738E-08	2.5775E-07	1.8007E-06	-1.1543E-07
1.4484E-07	1.8781E-07	1.5606E-06	4.8122E-07
1.0589E-07	1.2621E-07	2.2378E-06	-7.0519E-07
5.8790E-08	9.2772E-08	6.9037E-07	-6.7009E-07
5.1561E-08	9.9158E-08	1.0870E-06	1.0107E-07
-3.8228E-08	1.1804E-07	1.1915E-06	-2.7611E-08
-1.6771E-08	1.3203E-07	1.2312E-06	-2.1505E-08
-2.4057E-08	1.5492E-07	1.3669E-06	1.6462E-07
-3.9058E-08	1.5532E-07	1.7778E-06	-2.6733E-07
-7.9191E-09	2.0473E-07	1.2524E-06	-7.8109E-07
-3.7698E-08	1.9419E-07	6.3093E-07	-1.6075E-07
-4.5624E-08	1.7833E-07	1.7797E-06	2.4307E-07
-6.1849E-09	2.0118E-07	1.4622E-06	-1.3122E-06
1.7202E-08	2.5368E-07	4.8245E-07	-6.8594E-07
6.7583E-09	2.3136E-07	1.3346E-07	-7.2111E-07
2.5713E-08	2.9252E-07	-2.2835E-08	9.5799E-07
5.0461E-08	2.3063E-07	1.6352E-06	4.3084E-07
6.3179E-08	2.4778E-07	9.7383E-07	5.5011E-08
1.0033E-07	1.5492E-07	1.4886E-06	8.8848E-08
2.5539E-08	1.1514E-07	1.4144E-06	-4.0988E-07
3.9424E-08	1.4954E-07	7.5532E-07	-1.1702E-06
-2.1965E-08	1.6216E-07	-5.6685E-07	1.1234E-07
-1.3871E-08	1.7187E-07	6.3741E-07	1.0348E-06
-6.1424E-08	2.0479E-07	1.1467E-06	8.8620E-07
-1.8648E-08	2.3882E-07	1.5539E-06	9.7573E-08
3.7921E-08	2.4943E-07	6.1185E-07	3.9484E-07
7.2280E-08	2.4463E-07	1.5030E-06	6.5211E-07
1.7004E-07	2.3823E-07	1.0321E-06	4.8234E-07
1.8709E-07	1.7079E-07	1.9169E-06	8.1337E-07
1.3757E-07	4.8223E-08	1.7141E-06	3.1900E-10
9.5375E-08	5.7771E-08	1.7375E-06	3.1539E-07
2.2689E-08	5.8136E-08	1.9345E-06	-7.0876E-08
-3.1687E-08	6.3187E-08	1.7326E-06	-2.4592E-07
-3.6017E-08	1.1206E-07	2.0478E-06	-1.7495E-07
-4.9084E-08	1.7261E-07	1.7990E-06	-1.7032E-06
3.2444E-08	2.0320E-07	-4.5298E-07	-5.0934E-07
5.6287E-08	1.2529E-07	1.5432E-06	8.6824E-07
7.8567E-08	1.4655E-07	1.3523E-06	-7.5198E-07
3.7324E-08	7.6014E-08	7.6674E-07	-7.9790E-09
3.9076E-08	6.3115E-08	9.9261E-07	2.4052E-07
7.9570E-08	4.3368E-08	1.6331E-06	3.4728E-07
4.9613E-09	1.4777E-08	1.5891E-06	-2.5422E-07
3.4904E-08	-3.0052E-08	1.7396E-06	-4.1996E-07
-4.2330E-08	2.6172E-09	9.0371E-07	-1.0753E-06
-5.2315E-08	6.1151E-08	5.0470E-07	-6.6334E-08
-8.5384E-08	5.6564E-08	9.0894E-07	-1.6060E-07
-5.1411E-08	4.3102E-08	4.5044E-07	-7.3285E-08
-3.1767E-08	6.6769E-08	4.3708E-07	8.1335E-07
-3.9975E-08	6.9534E-08	1.5765E-06	9.1617E-07
-3.2652E-08	8.3799E-08	1.4760E-06	3.6685E-07
-3.2609E-08	6.2025E-08	2.0482E-06	1.7543E-07
-2.1626E-08	1.2061E-07	6.3708E-07	-6.6288E-07
3.9187E-08	4.3349E-08	8.9617E-07	1.8706E-06
-9.8485E-09	4.7144E-08	3.2583E-06	4.7047E-07
-2.4729E-08	-2.0737E-09	2.0273E-06	-7.5333E-07
-4.6641E-08	1.0228E-08	1.6100E-06	-5.4085E-07
-9.5129E-08	6.1800E-08	1.3684E-06	-1.5879E-07
-9.6604E-08	8.0056E-08	1.7412E-06	-3.2536E-07
-5.9699E-08	1.0590E-07	1.2860E-06	-1.8961E-07
-6.8973E-08	5.3927E-08	1.8825E-06	-1.6797E-07
-4.2550E-08	5.7416E-08	1.3647E-06	-4.1426E-07
-4.2683E-08	4.3844E-08	2.0663E-06	-7.5599E-08
3.0540E-09	5.7872E-08	1.6839E-06	-1.2829E-06
5.1109E-09	5.2800E-08	9.9317E-07	-6.0277E-07
1.9557E-08	1.5960E-08	1.0191E-06	-7.9935E-07
-1.7324E-08	-2.6229E-08	7.0565E-07	1.9396E-07
-5.3526E-08	-9.4481E-09	2.0450E-06	-3.9375E-07
-5.4486E-08	1.7351E-08	4.8226E-07	-1.1510E-06
-4.9527E-08	3.9884E-08	3.9474E-07	4.9631E-07
-6.1877E-08	4.9846E-08	1.3679E-06	7.1097E-07
-5.5688E-08	5.4682E-08	2.3235E-06	2.7312E-07
-5.7098E-08	2.5894E-08	1.7972E-06	-1.0595E-06
-5.0707E-08	4.8267E-08	9.7027E-07	-1.9972E-07
-5.5220E-08	3.0982E-08	1.7846E-06	-2.6127E-07
-3.3109E-08	3.3410E-08	1.2543E-06	-4.7342E-07
-2.2211E-08	5.5071E-08	1.8341E-06	-1.3783E-07
-6.0500E-09	1.7219E-08	1.6508E-06	-1.0744E-06
2.4183E-08	-2.8595E-08	1.2405E-06	-5.0850E-07
1.0284E-08	-4.4506E-09	1.7418E-06	-1.2915E-06
1.9351E-08	9.6109E-09	2.5706E-08	-1.2350E-06
1.1789E-08	-4.6824E-08	7.7199E-07	3.0694E-07
3.2116E-08	-8.9749E-08	1.1862E-06	-6.3954E-07
-6.6199E-08	-1.0523E-07	8.2817E-07	1.3257E-09
-7.9436E-08	-9.6534E-08	1.6452E-06	-5.9271E-07
-1.1139E-07	-5.9764E-08	5.1783E-07	-8.3601E-07
-1.0493E-07	-1.8944E-08	9.2235E-07	2.0798E-08
-7.1088E-08	-3.1883E-08	1.0030E-06	-6.5362E-07
-8.2122E-08	-4.6713E-09	4.1176E-07	-4.8677E-08
-5.2775E-08	-6.1082E-08	1.2428E-06	3.7293E-07
-7.3437E-08	-4.6362E-08	1.6468E-06	-2.7835E-07
-6.2004E-08	-6.9625E-08	1.2524E-06	-8.6030E-07
-9.4586E-08	-8.5286E-08	4.9639E-07	-5.0503E-07
-8.9797E-08	-8.4300E-08	1.0150E-06	1.8727E-07
-1.0756E-07	-8.2757E-08	1.4717E-06	-3.7807E-07
-1.0074E-07	-6.0705E-08	1.2241E-06	-7.7427E-07
-1.2174E-07	-1.5650E-08	5.5541E-07	-1.0163E-06
-9.7570E-08	-4.3782E-08	1.2042E-07	-8.5904E-08
-9.5444E-08	-2.0249E-08	8.1789E-07	1.0143E-07
-7.2610E-08	-6.5582E-08	7.3427E-07	1.0815E-07
-5.6915E-08	-5.4118E-08	1.2965E-06	7.0054E-08
-6.6191E-08	-5.6030E-08	9.7255E-07	-3.4362E-07
-5.7878E-08	-6.7175E-08	1.2335E-06	-1.7175E-07
-3.7504E-08	-7.3923E-08	7.6036E-07	-8.4482E-07
-9.0535E-08	-7.6289E-08	5.1301E-07	3.9870E-08
-5.6106E-08	-9.3690E-08	9.9470E-07	-7.1855E-07
-1.0170E-07	-8.8398E-08	-5.3558E-07	-3.8727E-07
-1.0194E-07	-1.0833E-07	1.1854E-07	1.1549E-06
-8.9679E-08	-7.4051E-08	1.1305E-06	8.6683E-07
-9.4361E-08	-8.9649E-08	1.1375E-06	3.5192E-07
-9.7941E-08	-2.7732E-08	8.5475E-07	8.1615E-07
-9.6655E-08	-6.3919E-08	2.2556E-06	8.2574E-07
-8.4351E-08	-4.9325E-08	1.6021E-06	-9.9534E-07
-1.3323E-08	-7.0569E-08	4.4107E-07	5.1241E-07
-5.1133E-08	-5.1223E-08	2.2774E-06	3.8798E-07
-5.2542E-08	-9.3699E-08	1.2479E-06	-7.5522E-07
-1.9845E-08	-8.3785E-08	1.3940E-06	2.2239E-07
1.7658E-09	-1.0488E-07	1.7188E-06	-6.9577E-07
-5.9302E-08	-1.5028E-07	1.2397E-06	-6.0382E-07
-4.4503E-08	-1.0409E-07	1.0969E-06	-1.2712E-06
-5.9371E-08	-8.6507E-08	-2.6079E-07	-6.0374E-07
-7.6146E-08	-1.2500E-07	6.0913E-07	4.4262E-07
-3.0391E-08	-1.2257E-07	9.1229E-07	-1.2606E-07
-3.9085E-08	-1.4402E-07	8.4066E-07	-1.2560E-07
-3.3138E-08	-1.1902E-07	5.6542E-07	-3.6443E-07
-5.5543E-08	-1.2842E-07	3.5921E-07	1.4792E-07
-4.5704E-08	-1.3661E-07	5.5582E-07	1.0655E-07
-9.6172E-08	-1.1206E-07	4.0555E-07	5.5123E-07
-1.1322E-07	-1.3085E-07	1.1316E-06	4.0537E-07
-8.3517E-08	-1.6153E-07	5.6513E-07	7.5379E-08
-1.0398E-07	-1.6112E-07	8.2500E-07	4.9130E-07
-1.0796E-07	-1.5898E-07	3.5116E-07	2.3979E-07
-1.1660E-07	-9.9619E-08	8.5236E-07	1.4507E-06
-1.0529E-07	-9.8625E-08	1.6662E-06	2.5770E-07
-1.0964E-07	-1.1197E-07	7.4692E-07	6.5143E-07
-7.0261E-08	-1.3568E-07	1.7688E-06	4.2239E-07
-8.7425E-08	-1.2358E-07	5.5157E-07	5.1842E-08
-8.0790E-08	-1.0824E-07	1.2552E-06	1.3388E-06
-1.0686E-07	-1.4760E-07	2.0533E-06	3.2439E-07
-1.1094E-07	-9.9618E-08	1.4850E-06	-2.7306E-07
-8.9277E-08	-1.1364E-07	6.6661E-07	-3.3729E-09
-4.0960E-08	-1.3549E-07	1.1166E-06	7.9737E-07
-6.0673E-08	-1.4401E-07	1.3155E-06	3.3649E-07
-8.7450E-08	-7.9073E-08	1.5110E-06	7.3065E-07
-5.8957E-08	-1.5860E-07	1.7806E-06	-2.8403E-07
-9.7099E-08	-1.2153E-07	6.0789E-07	7.1117E-08
-2.9087E-08	-1.3352E-07	1.2773E-06	7.3002E-07
