jMRUI Data Textfile

Filename: Export_to_jmrui.txt

PointsInDataset: 2048
DatasetsInFile: 1
SamplingInterval: 0.250000
ZeroOrderPhase: 0E0
BeginTime: 0E0
TransmitterFrequency: 1.2326E8
MagneticField: 2.8936E0
TypeOfNucleus:  
NameOfPatient:  
DateOfExperiment:  
Spectrometer:  
AdditionalInfo: 
SignalNames:  


Signal and FFT
sig(real)	sig(imag)	fft(real)	fft(imag)
Signal 1 out of 1 in file
2.3558E-06	-5.2150E-07	-9.2410E-08	4.8955E-07
8.5162E-07	-3.1129E-07	9.7052E-07	6.6053E-07
3.8297E-07	-3.4777E-07	1.2165E-06	6.0592E-08
3.5740E-07	-4.4772E-07	1.2769E-06	-5.5753E-07
-1.0160E-07	-4.7497E-07	3.2295E-08	-8.4066E-07
-2.6428E-07	-3.3466E-07	-9.8204E-09	7.9837E-07
-4.4439E-07	-1.4886E-07	1.3930E-06	2.4479E-07
-2.1912E-07	-2.3337E-09	6.8926E-08	-2.4781E-07
-1.0587E-07	1.6747E-08	7.6305E-07	1.3829E-06
1.1161E-07	-1.0121E-07	1.7058E-06	-3.5084E-08
1.4077E-07	-1.3668E-07	4.7549E-07	1.1895E-07
1.8006E-07	-2.4395E-07	9.8571E-07	6.9617E-07
-3.3821E-08	-2.4932E-07	1.2757E-06	6.5013E-07
-6.4204E-08	-2.5696E-07	1.4764E-06	1.9746E-07
-2.8072E-07	-1.9767E-07	1.0996E-06	4.1696E-07
-2.8253E-07	-4.8177E-08	1.6580E-06	1.9445E-07
-1.9142E-07	-1.3546E-08	9.0948E-07	-8.3308E-08
-5.4072E-08	7.3355E-09	1.0003E-06	6.0125E-07
1.3837E-08	2.3349E-08	1.3403E-06	5.5059E-07
3.7238E-08	-1.6797E-07	1.2899E-06	3.4561E-07
-7.8310E-08	-2.2120E-07	1.1560E-06	8.6241E-07
-1.6855E-07	-1.9722E-07	1.9906E-06	5.8378E-07
-2.5398E-07	-6.7909E-08	1.1044E-06	3.4615E-07
-2.2109E-07	4.3433E-08	1.9336E-06	1.4626E-06
-1.5726E-07	1.2996E-07	2.6680E-06	2.7059E-07
-1.7945E-08	1.2203E-07	2.1306E-06	2.1266E-07
9.0148E-08	2.4250E-08	2.6023E-06	-9.2821E-08
7.1827E-08	-5.0564E-08	2.0247E-06	-7.1069E-07
-2.7317E-08	-6.9655E-08	1.6393E-06	-3.5097E-07
-9.8744E-08	-2.2945E-08	1.7152E-06	-3.1372E-07
-2.3002E-07	-3.3114E-08	1.6853E-06	-1.5321E-07
-2.3797E-07	7.9304E-08	2.1407E-06	-4.4101E-07
-2.9100E-07	1.5729E-07	1.5909E-06	-1.1879E-06
-1.0026E-07	2.7999E-07	7.7532E-07	-9.8743E-07
-4.5328E-08	2.5092E-07	4.5945E-08	-3.6941E-07
1.4615E-08	2.1856E-07	4.7579E-07	1.1393E-06
1.2489E-08	1.3393E-07	1.8371E-06	5.8900E-07
3.9970E-08	7.5637E-08	9.6091E-07	3.5729E-07
2.3014E-08	1.1144E-07	2.0357E-06	1.2999E-06
1.6258E-08	1.3015E-07	2.5663E-06	-2.7528E-07
1.3549E-08	1.9089E-07	1.5062E-06	-3.1948E-07
3.4392E-08	2.0418E-07	1.5260E-06	-2.5034E-09
1.2095E-07	1.3572E-07	1.7614E-06	1.5941E-07
1.7453E-07	6.2699E-08	1.7018E-06	-6.0446E-07
7.9551E-08	3.0995E-08	6.5763E-07	2.3631E-07
7.7559E-08	1.2453E-08	2.2281E-06	8.0709E-07
-2.7475E-08	5.9647E-08	2.0467E-06	-8.9780E-07
-2.4298E-08	6.5391E-08	6.3228E-07	-4.3012E-07
-1.6187E-09	7.4580E-08	8.9091E-07	6.9075E-07
3.4537E-08	1.2152E-07	1.6918E-06	5.4032E-07
1.8811E-08	1.1122E-07	1.2399E-06	3.5594E-07
1.3508E-07	6.4325E-08	1.8106E-06	1.1340E-06
1.7827E-08	2.5742E-08	2.4571E-06	2.5344E-07
2.4968E-08	1.4919E-08	2.0055E-06	6.5029E-08
-4.4792E-08	-6.1468E-09	1.9942E-06	-2.3684E-07
-1.0326E-07	6.6983E-08	1.3360E-06	1.7444E-07
-1.1127E-07	5.8854E-08	2.2894E-06	4.4413E-07
-6.2683E-08	1.6622E-07	1.7108E-06	-5.0843E-07
-3.4535E-08	1.6925E-07	1.4388E-06	7.3771E-07
2.9145E-08	1.5340E-07	2.6698E-06	2.2847E-07
3.5969E-08	1.2101E-07	1.9546E-06	-3.1050E-07
4.5999E-08	1.3571E-07	2.2585E-06	-5.8571E-08
5.6693E-08	9.0727E-08	1.9315E-06	-7.2566E-07
-2.7240E-10	5.7692E-08	1.5342E-06	-3.8230E-07
-6.0420E-08	-5.2174E-09	1.1615E-06	-3.9241E-07
-1.0641E-07	5.3282E-08	1.1895E-06	8.6505E-07
-1.2197E-07	5.1542E-08	2.6828E-06	4.1973E-07
-9.6061E-08	9.1234E-08	2.0890E-06	-4.4771E-07
-1.1843E-07	1.0564E-07	2.0290E-06	-3.0635E-07
-9.3824E-08	1.1839E-07	1.5885E-06	-4.3444E-07
-7.7924E-08	1.3444E-07	1.8867E-06	1.2193E-07
-7.4861E-08	1.6438E-07	2.1964E-06	-5.3129E-07
-8.1788E-08	2.0010E-07	1.7120E-06	-7.3116E-07
-4.2415E-08	2.3860E-07	1.4193E-06	-7.5610E-07
-1.9787E-08	1.9869E-07	9.5601E-07	-4.6348E-07
5.4202E-08	2.0279E-07	1.1961E-06	9.9094E-08
1.2406E-08	1.4262E-07	1.4441E-06	-3.1891E-07
7.1490E-09	1.1101E-07	7.7060E-07	-1.1608E-07
-2.5793E-08	1.1777E-07	9.5856E-07	5.1578E-07
-6.2463E-08	1.1396E-07	1.4723E-06	9.4532E-07
-5.6472E-08	1.5486E-07	2.2380E-06	1.6643E-07
-2.0486E-08	1.2780E-07	1.2643E-06	1.5134E-07
-8.9481E-08	1.7685E-07	2.3036E-06	3.1789E-07
-5.4956E-08	1.8708E-07	1.0675E-06	-4.9202E-07
-1.7510E-08	2.3685E-07	1.7490E-06	1.0589E-06
4.5358E-08	2.2902E-07	2.0453E-06	-5.3395E-07
8.3683E-08	1.5858E-07	1.0955E-06	3.4547E-07
6.2189E-08	9.4579E-08	1.7993E-06	3.6166E-07
3.5682E-08	7.3210E-08	1.8880E-06	1.6506E-07
2.6896E-09	2.9301E-08	1.1893E-06	-3.0725E-07
-2.1665E-09	6.4382E-08	1.1507E-06	1.1026E-06
-3.1604E-08	8.4910E-08	1.9532E-06	5.3279E-07
-1.9863E-08	9.7369E-08	1.8274E-06	1.0965E-06
-8.3409E-08	7.2750E-08	2.7198E-06	2.9666E-07
-1.6434E-08	1.5190E-07	1.9711E-06	6.6441E-08
8.4846E-10	1.6927E-07	1.6942E-06	1.2258E-07
3.0099E-08	1.4762E-07	2.0359E-06	1.3661E-06
7.7021E-08	1.0280E-07	3.4400E-06	-1.5644E-07
6.0961E-09	7.5533E-08	1.7172E-06	-3.3609E-07
-9.5997E-09	6.0865E-08	2.4533E-06	1.0693E-07
-7.0335E-10	6.1583E-08	1.9328E-06	-8.5846E-08
-3.0440E-09	6.4879E-08	2.5731E-06	-5.0262E-08
-3.4936E-08	2.9427E-08	1.9042E-06	-5.3320E-07
-1.0819E-08	5.2027E-08	1.9021E-06	-1.8523E-07
-7.5366E-09	8.4589E-08	1.7262E-06	2.9812E-08
-3.7051E-08	5.2805E-08	2.1998E-06	-2.6823E-07
-3.7822E-08	5.9421E-08	1.0356E-06	-3.0651E-09
-6.3089E-08	3.5865E-08	2.4227E-06	1.1271E-06
-6.4391E-08	1.0509E-07	2.7574E-06	-4.4223E-07
-2.3859E-08	8.4113E-08	1.8624E-06	-2.1663E-07
-3.3152E-08	1.0605E-07	2.3031E-06	1.6845E-07
-2.2185E-08	8.3137E-08	2.4432E-06	-5.4677E-07
-8.1518E-09	8.0158E-08	1.7857E-06	-1.2731E-07
-1.8135E-08	7.7677E-08	2.7860E-06	-3.9415E-07
-3.2301E-08	3.2201E-08	1.4457E-06	-1.1773E-06
-2.4270E-08	5.7765E-08	1.3998E-06	2.3177E-07
-8.9644E-08	3.5940E-08	2.1135E-06	1.2122E-07
-6.2835E-08	4.6836E-08	2.5407E-06	-3.3166E-07
-8.1914E-08	5.9298E-08	1.7286E-06	-9.8301E-07
-8.2180E-08	8.4841E-08	1.6005E-06	-1.0577E-07
-5.5561E-08	1.1920E-07	1.9567E-06	-5.5695E-07
-1.3670E-09	8.3423E-08	1.4352E-06	-5.1675E-07
-2.2685E-08	1.0645E-07	1.3983E-06	-2.0619E-07
-5.5666E-09	8.7805E-08	1.5199E-06	-8.2040E-08
1.0480E-09	2.6405E-08	1.4977E-06	-3.8159E-08
-3.1517E-09	4.9726E-08	1.5427E-06	5.6980E-08
-4.4174E-08	3.5042E-08	1.5957E-06	3.3573E-07
-3.5586E-08	3.0530E-08	2.1009E-06	1.4035E-07
-5.3690E-08	1.2418E-08	1.7627E-06	8.0863E-08
-8.0845E-08	4.0039E-08	2.5318E-06	5.2780E-08
-8.8304E-08	6.1166E-08	1.8476E-06	-1.1239E-06
-7.9503E-08	9.8479E-08	7.3039E-07	-2.5584E-07
-5.6367E-08	1.1620E-07	1.3315E-06	8.9985E-07
1.6530E-09	6.3579E-08	2.4794E-06	2.2486E-07
-1.9499E-08	6.1557E-08	1.3213E-06	-1.5124E-07
4.2667E-08	9.9221E-08	2.1787E-06	9.9689E-07
6.0340E-08	1.3239E-08	2.5261E-06	-1.7952E-07
4.4011E-08	-2.3363E-08	2.3839E-06	1.4939E-07
6.9050E-09	-2.1351E-08	2.6045E-06	-7.7580E-07
-4.5048E-08	1.7583E-08	1.8223E-06	-6.7278E-07
-4.6563E-08	-1.7548E-08	1.7640E-06	-8.1482E-07
-4.3385E-08	6.9607E-08	1.0771E-06	-3.6048E-07
-9.3388E-09	2.8585E-08	1.6476E-06	1.9451E-07
-3.1470E-08	-1.3172E-09	1.8271E-06	-3.3542E-07
-1.0150E-08	-2.7192E-08	1.2204E-06	-1.1024E-07
-1.9697E-08	2.9025E-09	1.8630E-06	4.5018E-07
-2.2771E-08	-2.2774E-08	1.9874E-06	-3.5172E-07
-6.5448E-08	-3.5008E-08	1.5364E-06	9.1831E-08
-4.1017E-08	-2.7600E-08	2.3675E-06	-1.6016E-07
-9.0208E-08	-2.0959E-08	1.3577E-06	-1.2392E-06
-4.7969E-08	-5.2611E-09	2.5780E-07	3.5188E-07
-9.3183E-08	-2.6811E-08	1.8353E-06	9.0397E-07
-7.7746E-08	-1.2754E-08	1.5043E-06	2.3301E-07
-3.1874E-08	3.7752E-08	1.9632E-06	8.6721E-07
-1.3492E-08	4.5259E-08	2.0312E-06	2.8926E-07
-3.3801E-08	6.5433E-09	2.4293E-06	7.4570E-07
-3.9227E-08	2.1332E-08	2.6133E-06	-3.4509E-07
-2.0072E-08	-1.3248E-08	1.9791E-06	9.8090E-08
-1.6415E-08	-1.6310E-08	2.7572E-06	-5.1563E-08
5.1013E-09	3.6224E-09	2.4383E-06	-1.0391E-06
-2.9398E-08	4.7514E-09	1.2183E-06	-7.1325E-07
-1.9133E-08	-4.1951E-08	2.0560E-06	1.3242E-07
-1.9196E-09	-3.2611E-08	1.7371E-06	-1.0720E-06
1.4179E-09	-2.1009E-08	1.1393E-06	-3.6679E-08
-2.7770E-08	-2.5204E-08	1.4489E-06	-2.4254E-07
-2.9024E-08	-3.4273E-08	1.5636E-06	5.5851E-07
-6.7535E-08	-6.5514E-08	2.2049E-06	-6.1291E-07
-8.2784E-08	-5.2510E-08	7.4376E-07	-1.5682E-07
-9.3664E-08	3.1243E-08	1.5737E-06	7.0629E-07
-7.1297E-08	1.8273E-08	2.2270E-06	4.3960E-07
-6.7362E-08	4.3703E-08	2.1431E-06	-6.6209E-07
-3.9586E-08	6.2922E-08	1.1085E-06	-1.2002E-07
-1.3007E-08	2.3240E-08	1.4686E-06	-2.5332E-08
3.6623E-09	-1.5253E-08	9.8286E-07	7.4248E-07
1.6745E-08	2.7347E-08	2.2427E-06	7.5884E-07
5.2776E-08	-3.5948E-08	1.7609E-06	6.1282E-07
1.3338E-08	-4.2066E-08	3.0252E-06	7.3411E-07
-3.2939E-08	-6.7937E-08	2.6445E-06	-6.1735E-07
-4.0124E-08	-4.8213E-08	2.2225E-06	-4.7872E-07
-3.9226E-08	-2.5461E-08	1.8802E-06	-6.8948E-07
-2.1189E-08	-5.5318E-08	1.6863E-06	-4.4290E-07
1.2549E-08	-5.7397E-08	1.6348E-06	-5.1177E-07
2.6688E-08	-3.5777E-08	1.0680E-06	-6.4328E-07
3.0422E-08	-5.2295E-08	7.0341E-07	6.2188E-07
-1.4586E-08	-8.2267E-08	2.0327E-06	5.7275E-07
1.5668E-08	-8.3082E-08	1.4726E-06	3.7093E-07
1.6466E-08	-9.1688E-08	2.5163E-06	5.6941E-07
-6.7176E-09	-8.8492E-08	1.9283E-06	-2.5183E-07
-3.8725E-08	-8.6552E-08	2.6569E-06	1.9918E-07
-5.7532E-10	-6.3010E-08	1.9730E-06	-1.6673E-06
-6.3314E-08	-1.0633E-07	4.3464E-07	-2.7755E-07
-6.1606E-08	-7.9370E-08	1.1988E-06	1.3759E-07
-9.4555E-08	-2.4901E-08	8.4589E-07	6.5923E-07
-5.1064E-08	-2.0607E-08	2.2214E-06	1.0568E-06
-2.5446E-08	-1.5381E-08	2.2322E-06	-4.0303E-07
-4.2593E-08	1.4374E-09	1.2107E-06	-2.1365E-08
-1.0109E-08	-3.1377E-08	1.6345E-06	4.5100E-07
-8.7635E-09	-2.1192E-08	1.9918E-06	3.3208E-07
-1.5552E-08	-7.9203E-08	2.0115E-06	-5.8030E-07
-3.9559E-09	-1.1351E-07	5.6395E-07	-2.1991E-07
-5.4369E-08	-4.2519E-08	1.2949E-06	7.3798E-07
1.0563E-10	-8.8449E-08	8.7371E-07	4.5955E-07
-2.3471E-08	-4.8471E-08	1.7437E-06	1.7943E-06
3.6022E-09	-7.0667E-08	2.6183E-06	8.9345E-08
-1.1145E-08	-5.6785E-08	1.0182E-06	4.2978E-07
