jMRUI Data Textfile

Filename: Export_to_jmrui.txt

PointsInDataset: 2048
DatasetsInFile: 1
SamplingInterval: 0.250000
ZeroOrderPhase: 0E0
BeginTime: 0E0
TransmitterFrequency: 1.2326E8
MagneticField: 2.8936E0
TypeOfNucleus:  
NameOfPatient:  
DateOfExperiment:  
Spectrometer:  
AdditionalInfo: 
SignalNames:  


Signal and FFT
sig(real)	sig(imag)	fft(real)	fft(imag)
Signal 1 out of 1 in file
5.5986E-06	7.3769E-07	1.3594E-06	2.2243E-06
5.5261E-06	-1.8082E-06	1.7633E-06	1.4624E-06
4.0777E-06	-3.8930E-06	1.9018E-06	2.6469E-06
1.9836E-06	-4.8251E-06	2.9159E-06	2.0082E-06
-3.3768E-07	-4.7555E-06	2.7925E-06	2.4793E-06
-2.0439E-06	-3.4701E-06	4.1055E-06	1.9431E-06
-2.7391E-06	-1.6468E-06	3.9730E-06	9.2981E-07
-2.3931E-06	-1.1079E-08	3.1753E-06	6.4928E-08
-1.2740E-06	9.2813E-07	2.2023E-06	1.2293E-06
-5.8947E-08	1.0158E-06	3.3422E-06	1.3128E-06
7.4290E-07	5.0385E-07	2.8986E-06	1.0241E-06
9.9871E-07	-3.3372E-07	3.2197E-06	1.0989E-06
7.9350E-07	-1.0100E-06	3.0307E-06	1.1898E-06
1.7118E-07	-1.4481E-06	3.7284E-06	9.4211E-07
-3.7864E-07	-1.3767E-06	3.1538E-06	4.5284E-07
-8.3019E-07	-1.1182E-06	3.2816E-06	6.8703E-07
-1.0013E-06	-7.2465E-07	3.3482E-06	4.4875E-07
-1.0094E-06	-4.6966E-07	3.3442E-06	-2.6417E-07
-9.6864E-07	-3.4562E-07	2.1784E-06	-1.6332E-07
-9.9986E-07	-1.8522E-07	2.4049E-06	1.7036E-07
-1.0209E-06	-2.8520E-08	1.5076E-06	6.1603E-07
-1.0695E-06	1.1843E-07	3.1350E-06	1.4582E-06
-9.9343E-07	4.7710E-07	2.8461E-06	-6.7706E-07
-7.3372E-07	7.2109E-07	1.0944E-06	4.9673E-08
-3.3066E-07	8.6226E-07	1.1876E-06	1.5199E-06
-4.3675E-08	8.1208E-07	2.7876E-06	1.4921E-06
2.4598E-07	4.8439E-07	1.4557E-06	4.0474E-07
2.7707E-07	1.8511E-07	1.9891E-06	2.8090E-06
1.6037E-07	-1.4900E-07	3.7159E-06	9.4386E-07
-1.5613E-07	-2.5310E-07	2.1563E-06	5.9198E-07
-5.3878E-07	-1.0018E-07	1.9835E-06	1.0887E-06
-6.8029E-07	2.2100E-07	2.4501E-06	1.8875E-06
-5.6023E-07	6.5155E-07	2.7779E-06	5.7351E-07
-3.5365E-07	9.2929E-07	1.4420E-06	1.7794E-06
-2.2652E-08	9.9846E-07	3.0923E-06	2.1756E-06
2.9867E-07	9.1236E-07	3.4673E-06	1.7655E-06
5.9287E-07	6.5283E-07	3.6778E-06	-4.8001E-08
6.4357E-07	4.4903E-07	1.2121E-06	1.1844E-06
6.3913E-07	2.6787E-07	4.2797E-06	2.1509E-06
6.0521E-07	1.0806E-07	2.7449E-06	-6.3316E-07
5.7113E-07	-1.2652E-08	2.2232E-06	1.1515E-06
5.3539E-07	-1.0377E-07	2.0838E-06	8.0079E-07
5.0076E-07	-2.6002E-07	3.1183E-06	1.8816E-06
4.3498E-07	-3.6159E-07	2.9492E-06	-3.6083E-07
2.8668E-07	-4.7422E-07	1.3057E-06	1.0780E-06
5.2550E-08	-5.5838E-07	2.2663E-06	1.7073E-06
-1.7190E-07	-4.2234E-07	3.0643E-06	1.7917E-06
-2.4926E-07	-1.9212E-07	3.0899E-06	4.4545E-07
-1.5777E-07	1.7469E-08	2.2051E-06	1.0113E-06
1.1447E-08	1.4124E-07	2.5971E-06	1.0088E-06
2.3561E-07	1.8978E-07	2.6129E-06	1.0515E-06
3.3992E-07	1.9653E-08	2.1435E-06	5.2480E-07
3.1691E-07	-1.7976E-07	1.9289E-06	1.8592E-06
1.4688E-07	-4.1482E-07	2.9206E-06	1.2519E-06
-1.2471E-07	-4.7657E-07	2.4441E-06	1.5491E-06
-3.7603E-07	-3.4735E-07	3.1269E-06	1.0050E-06
-5.1742E-07	-1.4050E-07	2.3094E-06	1.3122E-06
-3.7161E-07	8.3092E-08	3.3729E-06	1.2203E-06
-1.4132E-07	2.5090E-07	2.7825E-06	7.0972E-07
7.9717E-08	2.5339E-07	3.1403E-06	3.0157E-07
2.5328E-07	9.8191E-08	1.3477E-06	5.0351E-08
3.0374E-07	-6.2784E-08	1.8933E-06	2.0456E-06
1.6730E-07	-2.5014E-07	3.0416E-06	1.0580E-06
-2.8310E-08	-2.8180E-07	2.1324E-06	5.8292E-07
-2.8895E-07	-1.8824E-07	1.7083E-06	1.4237E-06
-3.4075E-07	-4.9576E-08	2.5231E-06	1.8946E-06
-2.8709E-07	1.0269E-07	2.7908E-06	1.5896E-06
-1.5828E-07	1.7951E-07	3.6398E-06	1.5466E-06
7.0847E-09	1.4195E-07	3.6110E-06	-5.5782E-07
1.2554E-07	4.4350E-08	8.3519E-07	-3.9543E-07
6.2673E-08	-7.5458E-08	1.1659E-06	2.2211E-06
-1.5022E-08	-1.4736E-07	3.0869E-06	1.6961E-06
-1.6315E-07	-1.0777E-07	2.2871E-06	4.7586E-07
-1.9549E-07	-4.9356E-08	1.5021E-06	1.7249E-06
-2.4659E-07	1.3274E-07	3.3480E-06	2.1313E-06
-8.1818E-08	2.4918E-07	3.1619E-06	-7.7848E-08
5.3699E-09	2.0981E-07	1.3093E-06	7.3452E-07
1.9257E-07	1.3404E-07	2.3858E-06	1.5770E-06
1.7930E-07	3.4251E-08	2.2610E-06	5.5276E-07
1.2171E-07	-8.6799E-08	1.1432E-06	1.1026E-06
-6.0065E-08	-7.6738E-08	1.8842E-06	2.5840E-06
-1.3816E-07	-8.6447E-09	3.4698E-06	1.3152E-06
-2.0216E-07	1.0315E-07	1.4763E-06	4.0668E-07
-6.2935E-08	2.3775E-07	1.7590E-06	2.4685E-06
4.0233E-08	3.0664E-07	2.7667E-06	1.4362E-06
2.4431E-07	2.0446E-07	2.1246E-06	1.8706E-06
2.7440E-07	6.3629E-08	3.1434E-06	1.3696E-06
3.2928E-07	-1.3317E-07	1.9237E-06	8.3952E-07
1.8155E-07	-3.0308E-07	1.8089E-06	1.7001E-06
2.2107E-08	-2.8124E-07	1.8636E-06	2.3614E-06
-1.2227E-07	-1.6982E-07	3.2621E-06	2.6195E-06
-1.8311E-07	-1.5699E-08	3.4431E-06	1.6007E-06
-2.2646E-07	1.3915E-07	3.5915E-06	1.2383E-06
-2.7369E-08	2.5574E-07	3.1637E-06	7.6098E-07
1.9255E-07	2.6735E-07	3.4515E-06	1.0580E-07
2.9178E-07	8.9015E-08	1.0230E-06	-2.5657E-07
3.8827E-07	2.9740E-11	2.3152E-06	2.6020E-06
2.8289E-07	-1.3403E-07	3.5576E-06	-4.8336E-07
1.5456E-07	-2.6825E-07	5.2851E-07	-5.5671E-08
4.5873E-08	-2.9871E-07	8.4083E-07	1.4890E-06
-1.0286E-07	-2.6407E-07	1.2157E-06	2.0728E-06
-1.2838E-07	-2.0870E-07	1.5575E-06	2.3011E-06
-1.6356E-07	-1.5451E-07	2.7586E-06	2.8582E-06
-1.7556E-07	-8.0451E-08	2.9195E-06	6.1316E-07
-1.8364E-07	-5.9293E-08	9.1852E-07	2.0738E-06
-1.7046E-07	2.4639E-08	3.1226E-06	2.5891E-06
-1.9705E-07	5.2593E-08	2.4648E-06	1.2915E-06
-2.3182E-07	1.7458E-07	2.2251E-06	2.2927E-06
-1.3858E-07	1.4163E-07	3.8072E-06	2.3692E-06
-3.5692E-08	2.5893E-07	3.8421E-06	-2.9703E-07
3.5014E-08	1.9352E-07	9.2670E-07	2.0758E-07
1.2456E-07	1.3836E-07	1.6995E-06	1.9425E-06
1.9556E-07	1.2630E-08	2.1935E-06	1.6880E-06
7.2995E-08	-1.2980E-07	2.4265E-06	1.2990E-06
4.6700E-09	-1.5951E-07	1.6739E-06	1.2137E-06
-1.7993E-07	-1.2166E-07	1.7231E-06	1.7839E-06
-2.3522E-07	-5.0310E-08	1.8814E-06	2.0559E-06
-2.4037E-07	2.9636E-08	2.1852E-06	1.8831E-06
-1.8217E-07	8.8991E-08	1.8547E-06	2.2915E-06
-1.2199E-08	2.3034E-07	2.9005E-06	2.6162E-06
6.7905E-08	1.6163E-07	3.6104E-06	1.5315E-06
1.9478E-07	9.7076E-08	2.2347E-06	-4.9570E-08
1.0774E-07	-3.3850E-08	6.1320E-07	2.3570E-06
1.1544E-07	-1.1562E-07	3.5264E-06	2.3202E-06
-1.9768E-09	-1.3572E-07	1.4980E-06	5.7548E-07
-9.5807E-08	-6.2186E-08	1.5649E-06	2.9742E-06
-1.0529E-07	3.4448E-09	2.8105E-06	2.2146E-06
-5.6593E-08	9.9659E-08	2.3743E-06	2.0329E-06
-8.9644E-08	1.6164E-07	2.5320E-06	2.4905E-06
1.3557E-09	1.3987E-07	3.4523E-06	2.0786E-06
5.4014E-08	1.2821E-07	2.7183E-06	1.4270E-06
6.6276E-08	9.3851E-09	3.1777E-06	1.9142E-06
6.2023E-08	-5.5610E-08	2.9252E-06	9.6307E-07
3.2696E-08	4.5614E-10	2.9505E-06	1.3641E-06
3.4812E-09	-3.9061E-08	2.4016E-06	-7.8804E-09
6.9128E-08	3.6297E-08	8.9166E-07	1.7046E-06
1.2477E-07	2.5588E-08	2.8857E-06	2.0577E-06
1.4310E-07	1.3823E-08	2.1149E-06	7.0797E-07
1.8597E-07	-1.4228E-08	1.5803E-06	1.4777E-06
1.4729E-07	-1.2016E-07	1.4891E-06	1.5833E-06
7.6940E-08	-1.5615E-07	1.4823E-06	2.2580E-06
2.6615E-08	-1.8176E-07	1.8492E-06	2.4267E-06
-1.6906E-07	-1.1301E-07	2.3384E-06	2.6944E-06
-1.5773E-07	-4.9053E-08	2.7289E-06	2.0141E-06
-1.8657E-07	1.2078E-09	2.1606E-06	1.9520E-06
-8.3138E-08	7.8747E-08	2.2201E-06	2.4597E-06
-4.2383E-08	8.8046E-08	3.0585E-06	2.5685E-06
6.8362E-08	7.7353E-08	3.1390E-06	1.4226E-06
1.2948E-07	6.6708E-09	2.3744E-06	1.5723E-06
9.4571E-08	-5.7823E-08	2.4480E-06	1.4410E-06
6.3438E-09	-1.2704E-07	1.6436E-06	1.7457E-06
-3.2844E-08	-8.0494E-08	2.1148E-06	2.9001E-06
-7.0589E-08	-6.0966E-08	3.6647E-06	2.4707E-06
-1.0551E-07	9.1995E-09	3.1092E-06	8.2203E-07
-8.3283E-08	8.5830E-08	2.2803E-06	1.3486E-06
-6.8023E-08	1.0563E-07	2.1506E-06	1.0845E-06
-4.2826E-08	1.0896E-07	1.7668E-06	1.6180E-06
6.0544E-08	4.2102E-08	1.2486E-06	1.6282E-06
3.5268E-08	2.5992E-08	2.0749E-06	3.5270E-06
4.3534E-08	-1.2820E-08	3.1087E-06	1.1204E-06
2.9343E-08	-2.4074E-08	1.0324E-06	2.9709E-06
-7.3496E-10	-3.3254E-08	4.2031E-06	2.2394E-06
-2.3723E-08	-3.3302E-08	1.4592E-06	1.0578E-06
1.9093E-08	-7.9948E-08	2.5363E-06	2.5461E-06
-7.4757E-08	-3.8436E-08	1.6681E-06	2.2097E-06
-5.5567E-08	-4.3212E-09	3.5845E-06	3.2057E-06
-1.4889E-07	-1.2377E-09	3.1377E-06	1.1177E-06
-6.8530E-08	8.8000E-08	2.9264E-06	1.6045E-06
-1.0054E-07	7.8303E-08	2.0729E-06	9.6636E-07
-1.7220E-08	1.4155E-07	2.4089E-06	1.7566E-06
4.8079E-08	1.2090E-07	1.2385E-06	9.9600E-07
7.4140E-08	1.1758E-07	1.7407E-06	3.2719E-06
1.1149E-07	8.7526E-08	2.7920E-06	1.6319E-06
1.2151E-07	-2.7783E-08	1.5389E-06	2.2654E-06
9.5707E-08	-2.4861E-08	2.5170E-06	2.6104E-06
1.2107E-07	-5.8400E-08	2.4379E-06	1.8498E-06
7.7425E-08	-2.8738E-08	1.3234E-06	2.5281E-06
8.6907E-08	-9.1448E-08	3.0464E-06	3.8904E-06
1.0369E-08	-4.5061E-09	3.7525E-06	2.1043E-06
1.3745E-08	-9.9359E-09	3.5929E-06	2.0580E-06
3.8881E-08	-1.0183E-08	3.2372E-06	7.3035E-07
6.9245E-08	-4.0275E-08	2.4578E-06	1.5152E-06
5.4624E-08	-3.0443E-08	2.5950E-06	6.9592E-07
1.2563E-08	-3.0513E-08	1.6096E-06	1.6074E-06
1.7597E-08	-7.6004E-08	2.3985E-06	8.5656E-07
1.4170E-08	-6.1556E-08	-5.8332E-08	1.3369E-06
1.1307E-08	-8.1221E-08	1.2588E-06	3.9048E-06
2.4116E-08	-5.2298E-08	2.8064E-06	3.0655E-06
-2.5282E-08	-1.4055E-09	2.9892E-06	2.3701E-06
-1.8426E-08	-1.4718E-08	2.5528E-06	1.7460E-06
-6.4921E-08	-1.2803E-08	2.1910E-06	2.0137E-06
-2.4005E-08	-1.5212E-08	2.0660E-06	2.1434E-06
-7.5296E-08	-2.8681E-08	2.5140E-06	2.4108E-06
-1.0606E-07	-3.5924E-09	2.0973E-06	1.4731E-06
-5.6791E-08	2.8986E-08	1.3159E-06	3.0258E-06
-3.0225E-08	3.0609E-08	3.3108E-06	2.9043E-06
-1.1599E-08	-9.7922E-10	2.4566E-06	1.6333E-06
3.6191E-08	2.1661E-09	2.2340E-06	2.3283E-06
-1.4619E-08	1.6853E-08	2.3632E-06	2.0487E-06
4.1411E-08	1.4782E-08	1.8187E-06	2.0615E-06
1.3426E-08	4.2056E-09	1.7181E-06	3.2269E-06
-1.9030E-08	2.3541E-08	3.3363E-06	3.0208E-06
-3.3748E-08	7.7434E-09	2.6442E-06	2.0546E-06
-7.3316E-09	3.8402E-08	3.0631E-06	2.5428E-06
-3.3143E-08	2.9827E-09	2.7314E-06	1.3822E-06
-6.2408E-08	4.1480E-08	1.9369E-06	2.0969E-06
-2.8502E-08	3.9198E-08	2.1744E-06	2.2668E-06
