jMRUI Data Textfile

Filename: Export_to_jmrui.txt

PointsInDataset: 2048
DatasetsInFile: 1
SamplingInterval: 0.250000
ZeroOrderPhase: 0E0
BeginTime: 0E0
TransmitterFrequency: 1.2326E8
MagneticField: 2.8936E0
TypeOfNucleus:  
NameOfPatient:  
DateOfExperiment:  
Spectrometer:  
AdditionalInfo: 
SignalNames:  


Signal and FFT
sig(real)	sig(imag)	fft(real)	fft(imag)
Signal 1 out of 1 in file
2.8159E-06	-2.8168E-07	4.6118E-07	-4.3489E-07
2.7012E-06	-1.4280E-06	-7.4649E-07	1.2859E-06
1.9492E-06	-2.3687E-06	1.1968E-06	1.4304E-06
7.9867E-07	-2.8249E-06	6.9879E-07	8.3161E-07
-4.2544E-07	-2.6320E-06	1.3141E-06	1.4948E-06
-1.3353E-06	-1.9531E-06	1.9095E-06	5.4945E-07
-1.6006E-06	-9.9297E-07	1.1580E-06	4.3389E-07
-1.3273E-06	-1.4437E-07	1.8984E-06	6.9192E-07
-7.6713E-07	3.5005E-07	1.4780E-06	-4.4456E-07
-7.8338E-08	3.5769E-07	9.6177E-07	1.4622E-07
2.6626E-07	9.2897E-08	7.3209E-07	-1.9585E-07
3.4166E-07	-3.4423E-07	3.0712E-07	9.8440E-07
5.9524E-08	-6.4631E-07	1.3659E-06	1.0552E-06
-2.0458E-07	-6.8865E-07	1.6073E-06	8.9841E-07
-5.3726E-07	-5.9363E-07	1.8914E-06	1.7515E-07
-6.0881E-07	-3.7469E-07	1.3339E-06	1.4364E-08
-5.8479E-07	-1.8216E-07	8.9112E-07	3.2478E-08
-3.6851E-07	-1.3493E-07	1.3249E-06	1.1058E-06
-3.3447E-07	-1.2856E-07	2.0782E-06	-7.1222E-07
-3.3165E-07	-1.0138E-07	-3.0130E-07	4.4058E-08
-4.6641E-07	-1.9662E-07	1.5440E-06	1.1050E-06
-6.0599E-07	-1.5755E-08	6.6737E-07	-2.7600E-07
-6.5304E-07	1.4916E-07	3.2114E-07	1.4149E-06
-6.0173E-07	3.9187E-07	1.6676E-06	1.5480E-06
-3.8114E-07	5.4538E-07	2.1738E-06	7.0275E-07
-1.4983E-07	5.6693E-07	1.6955E-06	1.8656E-07
5.8707E-08	4.5444E-07	1.3537E-06	1.9675E-07
2.0467E-07	2.4450E-07	1.1131E-06	8.9426E-07
8.3013E-08	4.0829E-08	2.2504E-06	8.0113E-07
-8.7487E-08	-4.1130E-08	1.8624E-06	2.1356E-07
-2.9530E-07	4.3605E-08	2.5960E-06	1.0024E-07
-3.8647E-07	1.7478E-07	1.7996E-06	-1.3713E-06
-3.8857E-07	3.7664E-07	6.3598E-07	-8.9054E-07
-2.6494E-07	5.0215E-07	1.3322E-07	-1.9430E-07
3.8511E-08	5.5810E-07	7.7446E-07	4.2100E-07
2.4062E-07	5.1480E-07	3.0062E-07	-9.9386E-08
3.1918E-07	4.5361E-07	2.7943E-07	1.2922E-06
3.9570E-07	2.7372E-07	1.5686E-06	9.2298E-07
4.2958E-07	1.6699E-07	1.1453E-06	-3.2718E-08
3.7659E-07	6.8882E-08	3.3653E-08	6.6616E-07
3.0051E-07	5.5725E-09	1.4808E-06	1.8075E-06
3.0216E-07	-6.0746E-08	1.9191E-06	-2.3200E-07
2.6735E-07	-6.6707E-08	-1.1751E-07	8.5533E-08
2.6309E-07	-1.5131E-07	1.6852E-07	1.8928E-06
2.4726E-07	-2.2693E-07	1.7493E-06	2.1334E-06
2.1370E-07	-2.0542E-07	2.4118E-06	1.0802E-06
2.9807E-08	-2.0729E-07	1.9120E-06	5.2513E-08
-2.2384E-08	-1.6341E-07	7.7376E-07	8.9776E-07
-6.7614E-09	-1.0352E-07	2.5551E-06	1.0012E-06
2.9795E-08	-8.0058E-08	7.3278E-07	-4.7010E-07
1.3187E-07	-9.4354E-08	1.2773E-06	1.9807E-06
2.1985E-07	-1.3699E-07	1.9058E-06	1.0800E-07
1.4333E-07	-1.7358E-07	1.2855E-06	1.4503E-06
4.9582E-08	-1.8321E-07	1.9497E-06	8.5546E-08
-8.3067E-08	-2.1264E-07	7.6263E-07	1.7312E-06
-1.8287E-07	-1.4865E-07	3.0893E-06	1.3352E-06
-2.3032E-07	-3.8918E-08	2.8558E-06	2.4652E-07
-1.9269E-07	7.9532E-08	2.1127E-06	-1.5514E-06
-6.4977E-08	9.3172E-08	-3.2258E-07	4.6834E-07
1.0973E-07	5.7528E-08	1.8482E-06	1.0521E-06
1.4150E-07	-9.9424E-08	1.1549E-06	1.0769E-06
2.1439E-07	-1.8775E-07	2.8277E-06	4.2603E-07
5.9624E-08	-2.7040E-07	7.1494E-07	-5.8721E-08
-1.0869E-07	-2.5300E-07	1.9095E-06	8.5906E-07
-2.4252E-07	-1.3297E-07	7.6900E-07	6.2869E-07
-3.0813E-07	-8.6029E-09	2.7292E-06	1.2249E-06
-2.8111E-07	1.0157E-07	7.8788E-07	-4.7965E-07
-1.7128E-07	2.2114E-07	1.5998E-06	2.3157E-06
-5.7923E-08	2.1185E-07	2.6714E-06	4.9656E-07
6.0194E-08	1.9101E-07	2.7171E-06	8.4761E-07
5.6214E-08	4.4292E-08	2.4655E-06	-1.0874E-06
-1.7147E-09	-4.4904E-08	9.2788E-07	1.1866E-08
-6.8061E-08	-4.3548E-08	1.3386E-06	2.0690E-07
-1.1751E-07	5.6405E-09	1.3548E-06	9.3333E-07
-1.2023E-07	6.6988E-08	1.8804E-06	2.6022E-07
-5.8271E-08	1.7387E-07	1.0958E-06	8.8859E-07
-7.5367E-09	1.7153E-07	2.2860E-06	1.3521E-06
1.2387E-08	7.6902E-08	2.9243E-06	4.5029E-07
4.5247E-08	4.4836E-09	2.2771E-06	-6.8834E-07
-2.8680E-08	-5.1167E-08	1.1620E-06	7.5633E-08
-6.2572E-08	-5.2691E-08	1.9983E-06	6.4867E-07
-9.1480E-08	6.5784E-08	2.1812E-06	1.4038E-09
-1.4078E-07	1.1080E-07	1.8270E-06	-1.2344E-07
-7.9778E-08	2.1129E-07	1.6904E-06	-5.8489E-08
5.9006E-08	2.2902E-07	1.5618E-06	1.8351E-07
2.0102E-07	1.3970E-07	2.1700E-06	2.5392E-07
2.4581E-07	5.7453E-08	2.0540E-06	-8.1810E-07
2.5474E-07	-8.6130E-08	6.5088E-07	-7.3152E-07
1.6264E-07	-2.0903E-07	5.8864E-07	8.9310E-07
5.6099E-08	-2.7464E-07	2.2431E-06	7.1624E-07
-1.1389E-07	-1.3523E-07	1.4618E-06	-4.5571E-07
-1.3035E-07	-4.8856E-08	1.2172E-06	5.6127E-07
-1.1121E-07	8.3330E-08	1.7308E-06	6.7475E-08
-1.7345E-08	1.5014E-07	1.0628E-06	2.6011E-07
1.1711E-07	1.5105E-07	1.5642E-06	8.4369E-07
2.6373E-07	7.8714E-08	2.1081E-06	4.3187E-07
2.1154E-07	-4.8623E-08	2.0238E-06	-2.4191E-08
1.9321E-07	-1.1606E-07	1.6188E-06	-4.6436E-07
1.0230E-07	-1.7783E-07	8.5204E-07	3.0821E-07
5.9880E-08	-2.1927E-07	2.2086E-06	5.9693E-07
-9.4402E-08	-1.7722E-07	1.4503E-06	-6.5980E-07
-7.6605E-08	-1.3838E-07	1.2358E-06	5.9257E-07
-1.0341E-07	-6.2992E-08	1.9477E-06	-1.6054E-07
-7.0521E-08	-6.3250E-08	1.2199E-06	-1.9147E-07
-1.1433E-07	-3.6320E-08	1.1069E-06	-3.4717E-08
-6.9635E-08	-1.8023E-08	1.1232E-06	5.4446E-07
-1.0022E-07	-3.0669E-08	1.6388E-06	1.8963E-07
-1.2899E-07	1.2379E-08	1.1802E-06	3.9107E-07
-9.7822E-08	6.6296E-08	2.2143E-06	3.6350E-07
-5.8681E-08	8.9982E-08	1.3284E-06	-1.2528E-06
2.3712E-08	1.3954E-07	-4.2858E-07	5.7052E-07
1.1874E-07	5.7977E-08	2.0878E-06	1.7506E-06
5.5841E-08	3.3752E-08	2.0971E-06	-7.7026E-07
1.0589E-07	-2.4962E-08	3.4896E-07	1.4934E-07
-9.0412E-09	-1.1803E-07	1.2599E-06	8.7807E-07
-4.3508E-08	-5.1644E-08	1.2098E-06	6.2817E-07
-1.8418E-07	-2.1070E-08	1.5152E-06	1.2723E-06
-1.6500E-07	4.7576E-08	2.6116E-06	8.2311E-07
-9.5870E-08	8.5517E-08	2.3162E-06	-1.9757E-07
-4.9437E-08	1.2685E-07	1.9743E-06	-2.1506E-07
-1.9597E-09	1.1094E-07	1.8456E-06	-4.1351E-07
1.1628E-07	7.8860E-08	1.7838E-06	-9.4631E-07
1.0519E-07	1.4979E-08	-4.8961E-08	-1.0573E-06
6.1909E-08	-3.6212E-08	4.8432E-07	1.4904E-06
1.3591E-08	-2.3652E-08	2.2096E-06	-1.9379E-08
-5.8891E-08	-5.3648E-08	7.5330E-07	-1.0976E-07
-4.1249E-09	-1.6352E-08	1.4647E-06	-4.8226E-08
-7.4279E-09	3.5147E-08	6.2607E-08	-1.2634E-07
-2.9396E-08	1.0516E-07	1.1156E-06	1.4929E-06
3.9021E-09	1.1023E-07	1.7342E-06	-3.5867E-08
-2.2858E-08	5.8907E-08	6.1774E-07	5.1803E-07
-1.4902E-08	5.4814E-08	1.6455E-06	8.5926E-07
-6.1104E-09	-4.2619E-09	1.4070E-06	8.8401E-08
5.7823E-08	3.0351E-08	1.0298E-06	5.5466E-07
3.1507E-08	6.2866E-08	1.5855E-06	9.0893E-07
3.2753E-08	3.8241E-08	2.1640E-06	2.6195E-07
1.0782E-07	-1.0854E-08	1.7137E-06	-3.2157E-07
1.0895E-07	-2.8564E-08	1.3576E-06	-6.0017E-07
1.0924E-07	-8.5047E-08	4.1930E-07	-2.5498E-07
1.0176E-07	-1.0129E-07	9.2575E-07	3.0883E-07
7.6792E-08	-9.8701E-08	3.4544E-07	2.4221E-07
-1.4994E-08	-1.2588E-07	1.5401E-06	1.1134E-06
-9.1058E-08	-8.9875E-08	1.1085E-06	-1.0080E-06
-9.2661E-08	-3.5422E-08	-4.5397E-07	6.9555E-07
-1.0492E-07	-3.6713E-08	4.8040E-07	8.3852E-07
-6.1026E-08	1.6714E-08	5.4412E-09	2.1604E-06
-1.2704E-08	5.3146E-08	2.4557E-06	2.1479E-06
3.5917E-08	1.5826E-08	2.3027E-06	8.9511E-07
1.6470E-08	-1.9347E-08	2.8292E-06	-1.2454E-08
4.5234E-09	-6.1054E-08	9.6591E-07	-7.3214E-07
-1.8911E-08	-7.8720E-08	1.3861E-06	2.5308E-07
-3.9466E-08	-4.5322E-08	1.1874E-07	-6.9947E-07
-1.5164E-08	-1.9573E-08	-6.1317E-08	1.9039E-06
-7.6247E-08	-2.7386E-08	1.7988E-06	1.4061E-06
-4.2125E-08	5.8232E-08	1.9898E-06	9.3956E-07
-1.5415E-08	5.9454E-08	1.5878E-06	-5.2386E-07
-1.5284E-09	4.7147E-08	-1.1380E-08	1.0278E-06
4.6886E-08	3.8465E-08	2.0944E-06	1.4343E-06
2.8591E-08	5.2368E-08	1.5496E-06	2.3584E-07
6.6177E-08	5.7922E-09	1.6792E-06	3.9911E-07
4.0272E-08	2.2807E-08	8.7036E-07	-3.5089E-07
5.8502E-08	-1.9276E-08	-2.7590E-08	7.9663E-07
-2.6895E-08	-3.3794E-08	8.0241E-07	1.9313E-06
8.1543E-09	-2.0681E-08	1.8818E-06	1.4065E-06
-6.4791E-08	-1.0642E-08	1.5983E-06	1.0829E-06
-5.8734E-08	-3.8722E-08	1.9395E-06	1.0100E-06
-1.1609E-07	-2.4133E-08	2.0132E-06	9.3375E-07
-6.5966E-08	2.5917E-08	2.2983E-06	-3.5874E-07
-4.0567E-08	6.5188E-08	-2.6492E-07	2.6262E-07
1.9154E-08	8.4544E-08	1.9333E-06	2.4747E-06
1.2082E-08	7.8064E-08	2.3013E-06	2.1966E-08
1.7530E-08	4.4236E-08	1.2456E-06	1.1519E-06
4.9529E-08	8.4763E-08	2.6185E-06	9.7839E-07
1.1061E-07	2.2214E-08	2.4580E-06	-1.8230E-07
7.0822E-08	2.5959E-08	1.5630E-06	-3.1776E-07
4.8321E-08	-2.6182E-08	1.5744E-06	-5.1606E-07
5.6638E-08	-3.8685E-08	-3.9324E-07	-2.3709E-07
6.7486E-08	2.7642E-08	1.0410E-06	2.3502E-06
3.8690E-08	-4.0036E-08	2.2799E-06	3.0789E-07
6.0601E-08	-5.6007E-10	1.1698E-06	5.9792E-07
7.6862E-08	6.6224E-09	1.4209E-06	5.7296E-07
5.7565E-08	-2.8535E-08	1.5735E-06	1.0635E-06
4.7477E-08	-1.9287E-09	1.9028E-06	2.6880E-07
6.9572E-08	-3.3456E-08	1.5806E-06	4.6175E-07
-2.0003E-08	-3.9372E-08	1.1662E-06	-2.4168E-07
1.4014E-08	-7.6185E-08	5.5598E-07	1.4323E-06
-2.5409E-08	-6.5238E-08	2.4047E-06	9.9176E-07
-3.4378E-08	-5.3317E-08	1.4994E-06	1.1584E-07
-6.5584E-08	-5.3617E-08	1.2876E-06	7.3082E-07
-3.1305E-08	-1.9619E-08	1.9836E-06	8.8329E-07
-2.5916E-08	1.4922E-08	1.6464E-06	-2.5641E-07
-6.2045E-08	-3.4186E-08	7.6257E-07	1.0261E-06
-3.2043E-08	-5.7884E-10	2.2898E-06	1.2001E-06
-5.7929E-08	3.0641E-08	2.6651E-06	1.8544E-07
-7.4686E-08	1.1375E-08	1.6639E-06	-1.0919E-06
-1.5886E-08	2.3519E-08	6.1802E-07	5.7942E-07
-3.5263E-08	-1.5561E-08	2.2926E-06	-7.1986E-08
5.1202E-09	6.7269E-09	4.9515E-07	-6.1728E-07
-1.1081E-08	2.4101E-09	9.0794E-07	4.4927E-07
-2.1018E-08	-2.4168E-08	5.4023E-07	1.5647E-07
-2.6485E-08	5.0110E-09	7.4560E-07	1.1017E-06
-1.5946E-08	4.3904E-08	1.4910E-06	7.1686E-07
-4.4689E-08	-3.2113E-08	9.0379E-07	2.5153E-07
2.4124E-08	2.4274E-08	7.6641E-07	1.1730E-06
-1.7812E-08	2.0776E-08	1.4864E-06	1.0214E-06
-1.1682E-08	2.5418E-08	1.5853E-06	9.9373E-07
