jMRUI Data Textfile

Filename: Export_to_jmrui.txt

PointsInDataset: 2048
DatasetsInFile: 1
SamplingInterval: 0.250000
ZeroOrderPhase: 0E0
BeginTime: 0E0
TransmitterFrequency: 1.2326E8
MagneticField: 2.8936E0
TypeOfNucleus:  
NameOfPatient:  
DateOfExperiment:  
Spectrometer:  
AdditionalInfo: 
SignalNames:  


Signal and FFT
sig(real)	sig(imag)	fft(real)	fft(imag)
Signal 1 out of 1 in file
4.0120E-06	7.4114E-07	3.7530E-07	1.9463E-06
4.1574E-06	-1.0912E-06	8.0271E-07	2.6529E-06
3.0557E-06	-2.6662E-06	2.5840E-06	2.3290E-06
1.3755E-06	-3.5211E-06	2.2730E-06	1.1606E-06
-1.4661E-07	-3.3757E-06	2.2711E-06	1.0715E-06
-1.5220E-06	-2.4866E-06	1.5598E-06	6.1369E-07
-1.9668E-06	-1.0528E-06	1.3175E-06	1.6256E-06
-1.7026E-06	1.9305E-07	2.0762E-06	1.6296E-06
-7.6509E-07	8.2545E-07	1.9948E-06	1.4725E-06
4.9036E-09	7.8790E-07	2.4550E-06	1.6055E-06
6.5228E-07	2.9753E-07	2.4212E-06	8.5129E-07
8.1224E-07	-2.7546E-07	1.9745E-06	1.4115E-06
5.5315E-07	-7.6672E-07	2.9611E-06	1.0863E-06
5.4091E-08	-9.9711E-07	2.0655E-06	2.8874E-07
-3.0226E-07	-9.1697E-07	1.7696E-06	1.0532E-06
-5.7918E-07	-6.3499E-07	2.0509E-06	1.2443E-06
-6.2339E-07	-4.2934E-07	2.5112E-06	1.0952E-06
-5.4157E-07	-2.4941E-07	2.1439E-06	6.8055E-07
-5.0891E-07	-2.2019E-07	2.2629E-06	9.6250E-07
-4.8013E-07	-1.9615E-07	1.9516E-06	4.4337E-07
-6.5779E-07	-1.8986E-07	1.5329E-06	1.2279E-06
-7.3232E-07	-6.2236E-10	2.1101E-06	1.4711E-06
-7.7123E-07	1.9839E-07	2.5295E-06	1.5628E-06
-6.0624E-07	4.9162E-07	3.1507E-06	8.2088E-07
-3.5622E-07	5.9871E-07	2.3048E-06	1.8915E-07
1.5494E-08	5.9614E-07	2.2746E-06	8.5857E-07
2.6502E-07	4.0154E-07	2.4316E-06	-7.6083E-08
3.2318E-07	1.4262E-07	9.2904E-07	7.1173E-07
2.3097E-07	-8.4203E-08	2.6201E-06	1.6860E-06
-9.6526E-08	-1.6516E-07	2.3804E-06	5.0021E-08
-3.9189E-07	-6.6291E-08	1.8116E-06	8.9264E-07
-4.9961E-07	1.4316E-07	2.1466E-06	6.4000E-07
-4.9176E-07	4.0126E-07	2.2965E-06	8.8514E-07
-2.6208E-07	6.5812E-07	2.1347E-06	-1.3549E-07
-8.4673E-08	7.1716E-07	1.2706E-06	9.2462E-07
2.3245E-07	5.8872E-07	2.4072E-06	4.4237E-07
3.5015E-07	4.8411E-07	7.4652E-07	3.0734E-07
5.8868E-07	3.4567E-07	1.6110E-06	1.8532E-06
4.7260E-07	1.7511E-07	2.0282E-06	9.6985E-07
4.4008E-07	8.0054E-08	1.9806E-06	1.6131E-06
3.7960E-07	-4.5586E-08	2.9005E-06	7.8120E-07
4.2030E-07	-1.0555E-07	1.7628E-06	2.5291E-07
3.5167E-07	-1.7281E-07	1.6582E-06	1.1049E-06
3.3322E-07	-2.8448E-07	2.0843E-06	1.2326E-06
2.0839E-07	-3.3730E-07	2.4951E-06	9.4787E-07
5.9029E-08	-3.8850E-07	2.1383E-06	5.6524E-07
-9.2791E-08	-3.0538E-07	2.2014E-06	8.2404E-07
-1.5435E-07	-1.7519E-07	2.1536E-06	4.5385E-07
-1.4607E-07	-1.7868E-08	2.0083E-06	6.4481E-07
-7.4847E-09	-1.3284E-08	2.0605E-06	3.7701E-07
1.1740E-07	4.1311E-09	1.7554E-06	4.1650E-07
2.0448E-07	-3.0792E-08	1.6733E-06	2.5620E-07
1.7897E-07	-1.6546E-07	7.8340E-07	5.0577E-07
8.8865E-08	-2.2098E-07	1.3267E-06	1.9598E-06
-1.4855E-07	-2.8758E-07	2.5008E-06	7.6510E-07
-3.2679E-07	-2.1367E-07	8.4487E-07	1.0267E-06
-4.1263E-07	-2.3829E-08	2.6234E-06	1.9182E-06
-2.5481E-07	1.0940E-07	1.8262E-06	3.1255E-07
-1.4369E-07	2.3373E-07	2.1114E-06	1.7905E-06
1.4328E-07	1.5453E-07	2.2872E-06	2.1892E-07
1.9457E-07	3.3434E-08	1.7281E-06	1.5964E-06
2.4583E-07	-1.3122E-07	2.7814E-06	3.2235E-07
1.1962E-07	-2.3127E-07	1.4746E-06	7.9768E-07
-4.1977E-08	-2.6607E-07	2.1781E-06	4.2251E-07
-2.1292E-07	-1.8602E-07	1.0175E-06	1.3427E-06
-3.2560E-07	-3.9236E-08	3.2412E-06	1.1699E-06
-3.2170E-07	1.1267E-07	1.4298E-06	-4.1596E-07
-1.7905E-07	1.8646E-07	1.3511E-06	1.3137E-06
-5.5625E-08	1.8759E-07	1.7002E-06	8.7214E-07
6.8887E-08	1.0649E-07	1.8501E-06	1.5222E-06
7.7027E-08	-5.5985E-10	2.6331E-06	7.9000E-07
-6.0391E-09	-1.0142E-07	1.8160E-06	8.9307E-08
-1.1170E-07	-3.6087E-08	1.2248E-06	7.5737E-07
-1.5757E-07	1.5890E-09	1.4657E-06	8.7030E-07
-1.7079E-07	5.4333E-08	1.0484E-06	1.5416E-06
-9.2156E-08	1.8811E-07	2.5100E-06	1.6695E-06
5.5227E-08	1.6538E-07	1.5289E-06	5.7963E-07
1.1910E-07	1.2821E-07	1.9190E-06	2.3403E-06
1.0309E-07	5.5685E-08	3.3573E-06	7.3805E-07
7.4547E-08	-7.0094E-08	1.8392E-06	9.2289E-08
-5.1674E-08	-1.3255E-08	1.4677E-06	7.7297E-07
-1.1951E-07	-9.0822E-09	1.7465E-06	1.1994E-06
-1.4236E-07	1.4047E-07	1.5002E-06	6.9418E-07
-1.7891E-08	2.1883E-07	9.7005E-07	2.5094E-06
1.4934E-07	2.2392E-07	3.9129E-06	2.4363E-06
2.7242E-07	2.0575E-07	3.2452E-06	8.0056E-08
2.7735E-07	1.4686E-08	2.7010E-06	6.2405E-07
2.8306E-07	-1.3152E-07	2.6524E-06	-1.3333E-07
1.5609E-07	-2.3420E-07	2.0364E-06	1.9694E-07
7.1429E-09	-2.4713E-07	2.0885E-06	-9.5676E-09
-1.2876E-07	-2.0682E-07	1.6239E-06	3.9140E-07
-2.0459E-07	-3.2165E-08	2.3105E-06	2.8308E-07
-1.5754E-07	1.1108E-07	1.4933E-06	-3.9911E-07
-4.4712E-08	2.2341E-07	1.3149E-06	5.7483E-07
9.9457E-08	1.9663E-07	1.7505E-06	-3.2164E-07
2.3542E-07	8.9771E-08	-1.8160E-07	2.0225E-07
2.8145E-07	-2.7773E-09	1.2831E-06	2.1785E-06
2.6157E-07	-1.3999E-07	2.0894E-06	2.1729E-07
1.3516E-07	-2.1871E-07	3.1824E-07	9.7078E-07
1.2912E-08	-2.3434E-07	1.9556E-06	1.8854E-06
-7.1825E-08	-2.2261E-07	1.6650E-06	5.4634E-07
-9.8091E-08	-1.9997E-07	1.5505E-06	1.7528E-06
-1.2010E-07	-7.8129E-08	2.7822E-06	6.3770E-07
-1.2243E-07	-1.1466E-07	1.4427E-06	1.2451E-07
-1.4736E-07	-5.8582E-08	1.5090E-06	6.8758E-07
-1.7552E-07	-7.1130E-08	1.4957E-06	6.2832E-07
-2.0595E-07	5.3893E-09	1.4056E-06	2.4442E-07
-1.3806E-07	7.5569E-08	5.0652E-07	8.8717E-07
-1.6586E-07	1.3523E-07	1.4406E-06	1.4251E-06
-6.3157E-08	1.4135E-07	1.5443E-06	1.2305E-06
6.1211E-08	1.2823E-07	2.0899E-06	3.0670E-07
1.0818E-07	6.8052E-08	-2.5641E-08	6.2237E-07
1.1342E-07	2.4289E-08	2.1188E-06	2.0087E-06
1.1515E-07	-6.0551E-08	8.3790E-07	-4.9946E-07
7.8917E-11	-1.4444E-07	1.0980E-07	2.6334E-06
-1.0690E-07	-8.8484E-08	2.6522E-06	1.5619E-06
-1.6388E-07	-1.9091E-08	1.4786E-06	4.7801E-07
-1.5807E-07	9.8383E-08	8.5344E-07	9.6063E-07
-1.1656E-07	1.1892E-07	1.2970E-06	1.5889E-06
-3.5867E-09	1.9453E-07	1.2178E-06	8.6625E-07
8.1115E-08	1.5019E-07	7.4386E-07	1.7645E-06
1.7149E-07	8.2793E-08	1.5510E-06	1.9645E-06
1.4020E-07	1.2577E-08	2.1093E-06	1.4906E-06
1.1298E-07	-8.7623E-08	1.1985E-06	7.9646E-07
4.7593E-08	-6.7895E-08	1.5160E-06	2.1255E-06
-3.5620E-08	-4.0034E-08	2.0283E-06	6.8686E-07
-7.7418E-08	5.5348E-10	1.0241E-06	1.4007E-06
-3.9352E-08	6.9453E-08	1.6186E-06	7.0941E-07
-6.5355E-08	8.6925E-08	-3.0388E-07	1.4105E-06
4.6086E-08	1.2466E-07	1.1078E-06	3.3925E-06
6.5685E-08	7.6998E-08	2.5842E-06	2.5505E-06
7.6578E-08	4.4310E-08	2.7443E-06	1.6789E-06
1.4172E-08	1.3491E-08	2.4279E-06	8.3993E-07
3.5345E-08	6.0172E-09	1.4834E-06	1.0297E-06
-4.9240E-09	6.3822E-08	1.8177E-06	1.2262E-06
5.2547E-08	4.5575E-08	8.4571E-07	1.5509E-06
1.4854E-07	3.5721E-08	2.6893E-06	2.5769E-06
1.2300E-07	4.3434E-08	2.2258E-06	3.6779E-07
1.7255E-07	-3.2208E-08	2.0110E-06	1.6662E-06
8.9963E-08	-1.2827E-07	1.5993E-06	-2.6972E-07
4.4332E-08	-1.4180E-07	1.4416E-07	2.5908E-06
-7.3618E-09	-1.7008E-07	2.9718E-06	1.9334E-06
-4.1884E-08	-1.2102E-07	1.9033E-06	1.3345E-06
-1.2840E-07	-1.2512E-07	2.4327E-06	6.8550E-07
-9.8423E-08	1.2223E-08	8.9030E-07	1.2429E-06
-7.3842E-08	7.2291E-08	2.3258E-06	1.3841E-06
-3.6122E-08	5.6576E-08	8.1836E-07	9.3693E-07
-7.0593E-10	5.9409E-08	1.6708E-06	2.3880E-06
3.8622E-08	-3.3319E-08	2.2189E-06	1.6824E-06
1.6974E-08	-8.2362E-08	2.3262E-06	1.3728E-06
-2.8573E-08	-1.1763E-07	1.9073E-06	1.2849E-06
-6.1046E-08	-6.5741E-08	2.3863E-06	1.1709E-06
-7.6405E-08	-7.5252E-08	1.3098E-06	7.2876E-07
-5.2519E-08	-3.6195E-08	1.5361E-06	2.3989E-06
-1.0760E-07	5.8016E-08	3.2749E-06	1.7045E-06
-2.7621E-08	1.1158E-07	2.7395E-06	2.4845E-07
1.7669E-08	8.3355E-08	1.8470E-06	1.2178E-07
4.9210E-08	7.7889E-08	9.9141E-07	5.6238E-07
1.1204E-08	-4.3257E-09	1.5144E-06	1.4416E-06
5.6288E-08	5.1872E-09	1.3626E-06	7.8968E-07
3.9411E-08	-2.7814E-08	1.2667E-06	2.0516E-06
1.3406E-08	-2.1478E-08	2.5096E-06	1.5001E-06
2.1513E-08	-2.9302E-08	2.3516E-06	9.3691E-07
-3.0167E-08	-4.9191E-08	1.7277E-06	2.6225E-07
-6.2797E-08	-5.0343E-08	1.4732E-06	1.5127E-06
-5.3853E-08	-6.6655E-08	2.4030E-06	3.8302E-07
-7.7723E-08	-1.4685E-08	1.1579E-06	7.3662E-07
-7.1550E-08	3.7224E-08	1.9623E-06	3.7815E-07
-8.6854E-08	6.2991E-08	7.5332E-07	5.0040E-07
-1.4604E-08	6.3840E-08	1.3868E-06	1.8826E-07
4.7362E-09	1.0344E-07	-9.4923E-07	6.5721E-07
5.2715E-08	1.0529E-07	8.7070E-07	2.9109E-06
1.1632E-07	1.1957E-07	1.1975E-06	1.2212E-06
8.0141E-08	7.7148E-08	6.9963E-07	2.3873E-06
9.3250E-08	-5.4522E-11	1.8585E-06	2.2302E-06
7.4461E-08	1.6875E-08	2.0965E-06	1.6483E-06
6.8328E-08	-1.1427E-08	1.4825E-06	7.4243E-07
2.7339E-08	-8.2745E-09	5.0744E-07	2.0719E-06
-1.2051E-08	-8.6810E-09	2.2887E-06	2.3019E-06
2.1847E-08	-3.3209E-08	1.6885E-06	1.2656E-06
-8.8815E-09	-4.1349E-08	2.1446E-06	1.5331E-06
4.5652E-08	-2.0138E-09	8.8014E-07	6.5692E-07
5.9996E-08	-8.6883E-08	1.4520E-06	2.6113E-06
2.6176E-08	-8.9556E-08	1.6328E-06	6.4385E-07
5.9211E-08	-7.4470E-08	5.1601E-07	3.0516E-06
1.7732E-08	-5.6948E-08	3.2891E-06	2.0751E-06
-1.1322E-09	-5.4657E-08	1.8238E-06	1.1742E-06
1.4456E-08	-7.8267E-08	2.1688E-06	1.2226E-06
-2.3900E-08	-1.9625E-08	1.2528E-06	1.4726E-06
-6.2732E-08	4.6206E-09	2.1944E-06	2.1028E-06
-3.3831E-08	5.2309E-10	2.9881E-06	1.4695E-06
-1.0523E-08	1.3505E-08	2.5537E-06	-3.1192E-07
-1.1126E-07	4.2858E-08	9.9714E-07	3.6019E-07
-2.2575E-08	6.5202E-08	7.8902E-07	4.0164E-08
-9.4950E-08	1.7948E-08	-4.0447E-07	2.2737E-06
-2.7007E-08	3.5550E-08	2.3271E-06	2.0052E-06
-2.8323E-08	5.9729E-08	8.0247E-07	1.4008E-06
-2.3122E-09	3.2028E-08	2.0913E-06	1.8095E-06
9.6994E-09	6.1702E-08	9.4438E-07	1.3664E-06
-2.7383E-08	2.5416E-08	2.3022E-06	1.8608E-06
-1.2255E-08	1.4581E-08	1.0729E-06	7.0106E-07
7.9901E-09	1.7994E-08	1.5490E-06	1.8847E-06
-3.6380E-08	2.3305E-08	1.0203E-06	9.6028E-07
-4.0676E-08	-3.0417E-08	1.1743E-06	2.4522E-06
-4.4409E-08	-7.2810E-10	2.0908E-06	1.5257E-06
-5.0356E-08	4.4615E-08	1.4398E-06	1.4736E-06
6.5650E-09	2.4233E-09	1.8034E-06	1.6327E-06
