jMRUI Data Textfile

Filename: Export_to_jmrui.txt

PointsInDataset: 2048
DatasetsInFile: 1
SamplingInterval: 0.250000
ZeroOrderPhase: 0E0
BeginTime: 0E0
TransmitterFrequency: 1.2326E8
MagneticField: 2.8936E0
TypeOfNucleus:  
NameOfPatient:  
DateOfExperiment:  
Spectrometer:  
AdditionalInfo: 
SignalNames:  


Signal and FFT
sig(real)	sig(imag)	fft(real)	fft(imag)
Signal 1 out of 1 in file
1.7109E-06	7.4233E-07	-1.9482E-06	8.8498E-07
2.0400E-06	-1.7485E-07	4.4928E-08	1.4367E-06
1.4244E-06	-1.1236E-06	-6.8066E-07	-1.5967E-08
9.2995E-07	-1.5182E-06	-7.9510E-07	1.2166E-06
-9.5594E-08	-1.5460E-06	-4.9870E-07	8.6477E-07
-6.3440E-07	-1.0947E-06	-3.2637E-08	1.5310E-06
-9.5159E-07	-5.1979E-07	5.1984E-07	4.6508E-07
-7.0759E-07	-8.1078E-10	6.6012E-08	1.4387E-07
-3.6595E-07	2.9652E-07	-1.1036E-06	-7.4116E-09
1.4049E-07	2.2416E-07	-2.8508E-07	2.1762E-06
3.1729E-07	-2.9646E-08	1.2489E-06	-3.4148E-07
4.2122E-07	-2.5672E-07	-1.2287E-06	9.6034E-08
1.9814E-07	-5.1016E-07	6.5117E-08	3.5655E-07
-6.5203E-08	-4.7965E-07	-1.4034E-06	2.7998E-07
-3.5857E-07	-3.3577E-07	-3.4271E-07	8.5643E-07
-3.7761E-07	-1.2174E-07	-1.6547E-06	8.5222E-07
-3.1673E-07	-8.0372E-09	3.5974E-07	1.9123E-06
-1.3941E-07	-2.0255E-09	-9.9366E-07	-2.2370E-07
-1.0936E-07	-3.1030E-08	-1.0592E-06	2.5685E-06
-8.5630E-08	-1.2486E-07	4.6297E-07	8.7921E-07
-2.6876E-07	-1.7316E-07	-1.1808E-06	1.5268E-06
-3.7227E-07	-1.5848E-07	3.4385E-07	2.5602E-06
-5.3071E-07	3.4132E-08	1.4484E-06	1.0584E-06
-4.6442E-07	1.8223E-07	-4.7233E-07	4.9375E-08
-3.4428E-07	2.7383E-07	-2.2349E-07	2.4648E-06
-9.7372E-08	3.7937E-07	1.6571E-06	8.5521E-07
6.4449E-08	2.8768E-07	1.5487E-07	7.2660E-08
2.3075E-07	1.6699E-07	-2.6052E-07	4.1170E-07
1.5366E-07	-4.2435E-08	-6.2697E-07	1.0788E-06
-2.2995E-08	-6.0774E-08	-1.3725E-07	1.5182E-06
-2.1047E-07	-8.7158E-08	5.8279E-07	1.5632E-06
-2.6927E-07	7.6169E-08	6.9437E-07	5.2798E-07
-2.8874E-07	2.0907E-07	1.6701E-07	5.1905E-07
-1.7021E-07	3.6171E-07	-4.4959E-07	1.2552E-07
-3.1722E-08	3.9049E-07	-9.2694E-07	1.5112E-06
1.6010E-07	4.4152E-07	1.5515E-07	1.3549E-06
2.4052E-07	2.6975E-07	-1.2141E-07	1.0740E-06
2.5310E-07	1.8482E-07	-7.7941E-07	1.0200E-06
2.2965E-07	9.0331E-08	-3.6183E-07	2.7845E-06
2.3345E-07	1.1358E-08	9.1864E-07	1.3779E-06
1.8243E-07	6.8091E-09	-2.9220E-08	2.3166E-06
2.1204E-07	-8.2197E-09	1.9337E-06	1.0798E-06
2.7922E-07	-2.7871E-08	-7.1436E-07	8.7946E-07
1.8587E-07	-1.0991E-07	1.2736E-06	2.4703E-06
1.9542E-07	-1.5957E-07	9.4998E-07	5.6188E-07
1.1780E-07	-1.6577E-07	5.8339E-07	1.4596E-06
3.9671E-08	-1.5618E-07	1.1608E-06	1.0329E-06
-2.5352E-08	-1.1958E-07	4.6022E-07	1.4014E-07
-5.7963E-09	-6.2268E-08	-9.0335E-07	2.1066E-06
3.2382E-08	-1.7712E-08	2.5006E-06	2.6528E-06
4.1226E-08	-3.3682E-08	1.6525E-06	-4.8974E-08
9.4434E-08	-9.4688E-08	1.5374E-06	5.8551E-07
7.0423E-08	-1.1670E-07	2.2825E-07	-8.2280E-07
2.7591E-08	-1.4263E-07	-2.5305E-07	1.8391E-06
-8.9501E-08	-1.4287E-07	1.7298E-06	9.0561E-07
-1.2824E-07	-9.1497E-08	1.0647E-06	5.2866E-07
-1.8711E-07	-6.3929E-08	1.5743E-06	-3.0603E-07
-1.0807E-07	7.8704E-08	-1.8924E-07	-7.0084E-07
-6.6064E-08	8.5455E-08	1.9312E-09	7.1667E-07
9.6141E-08	4.3627E-08	4.4868E-07	-4.6940E-08
9.9091E-08	-4.3011E-08	-3.4601E-07	5.0120E-08
1.6752E-07	-1.5143E-07	-9.2236E-07	2.1702E-07
7.7219E-08	-2.2630E-07	-1.0724E-06	2.3486E-06
-2.6831E-08	-2.2781E-07	1.7089E-06	1.7004E-06
-1.9346E-07	-1.4836E-07	2.6684E-07	3.7604E-07
-2.4424E-07	-4.8721E-08	7.8456E-07	1.0858E-06
-3.2271E-07	8.0346E-08	8.5354E-07	6.8813E-07
-2.0270E-07	1.1974E-07	1.4975E-06	1.2643E-06
-7.7866E-08	1.0134E-07	3.0079E-07	-1.7730E-06
-5.0317E-08	1.2417E-07	-9.4993E-07	9.7800E-07
2.6425E-08	4.2406E-08	-1.8060E-07	-6.7235E-08
-7.8964E-09	-4.1879E-08	-9.1859E-07	1.7575E-06
-6.5689E-08	1.5240E-08	9.1764E-07	8.4610E-07
-6.4196E-08	4.4185E-08	-1.1952E-07	4.9816E-07
-6.7476E-08	9.2458E-08	-4.2859E-07	3.8902E-07
-1.5450E-08	1.3523E-07	-6.0543E-07	2.0404E-06
3.2459E-08	1.4544E-07	1.4692E-06	1.0697E-06
4.9930E-08	7.2182E-08	1.6936E-07	-2.3400E-07
4.8364E-08	9.6760E-09	-9.0892E-07	9.1066E-08
4.6260E-08	-3.8761E-08	-1.3163E-06	1.6840E-06
-5.6403E-08	-5.3731E-08	5.4740E-08	2.0631E-06
-9.3210E-08	6.3358E-08	6.7500E-07	1.5759E-06
-6.3986E-08	1.5375E-07	7.5601E-08	5.0243E-07
-4.0415E-08	1.7647E-07	-3.4691E-07	2.1210E-06
9.3925E-08	2.1551E-07	1.2704E-06	1.0543E-06
1.9305E-07	1.1593E-07	-2.3442E-07	5.6351E-07
2.7916E-07	1.2135E-08	-5.8418E-07	1.3787E-06
1.8741E-07	-6.5433E-08	5.6583E-07	2.8152E-06
1.3039E-07	-1.8255E-07	1.7132E-06	-3.9900E-08
5.1775E-08	-2.1981E-07	-1.4782E-06	1.3468E-06
-4.4592E-08	-1.0362E-07	1.6568E-06	2.0998E-06
-1.3271E-07	-6.8724E-08	-1.5776E-07	3.2995E-07
-1.0247E-07	9.9837E-08	3.9273E-07	2.0887E-06
-2.2176E-08	1.1816E-07	6.8649E-07	1.3769E-06
1.2876E-07	8.3091E-08	1.2354E-06	1.3085E-06
1.8833E-07	6.5115E-08	4.7743E-07	7.8157E-07
1.8482E-07	5.4112E-09	1.1382E-06	1.0942E-06
2.0482E-07	-1.2861E-07	1.7311E-07	4.1383E-07
4.3739E-08	-1.8254E-07	8.7598E-07	1.4021E-06
2.3312E-08	-1.5559E-07	6.0676E-07	4.0756E-09
-4.1650E-08	-9.2587E-08	-1.1950E-07	7.9161E-07
-3.5534E-08	-9.7593E-08	1.9760E-08	9.9000E-07
-8.3031E-08	-3.4388E-08	4.8337E-07	9.4869E-07
-5.4860E-08	-7.3598E-08	-5.8948E-07	5.7044E-07
-4.5638E-08	-3.9971E-08	-1.3594E-07	2.2615E-06
-2.4221E-08	5.3297E-09	9.4658E-07	1.4461E-06
-1.4383E-07	-8.9444E-09	7.3951E-07	1.0095E-06
-9.2061E-08	-3.1209E-08	1.4774E-07	7.3825E-07
-8.3059E-08	2.5940E-08	5.0264E-08	1.4701E-06
-5.0287E-08	2.5403E-08	4.1869E-07	1.7027E-06
-1.1446E-08	7.0064E-08	1.4214E-06	1.2477E-06
4.3989E-08	4.8906E-08	5.4969E-08	9.2759E-08
4.6672E-08	5.2807E-08	-4.2610E-08	1.8278E-06
5.5874E-08	-2.0047E-08	6.5151E-07	9.9965E-07
-3.5437E-08	-9.0671E-08	7.2204E-08	1.4071E-06
-4.9378E-08	-8.4548E-08	1.5239E-07	1.5933E-06
-1.2391E-07	3.2372E-08	9.7507E-07	2.5161E-06
-1.3807E-07	3.8553E-08	1.9460E-06	8.9981E-07
-1.0576E-07	8.7808E-08	8.1927E-07	6.9859E-07
1.5328E-09	7.5268E-08	8.1649E-07	5.8717E-07
2.8274E-08	1.1367E-07	3.9447E-07	1.1544E-06
8.7354E-08	7.3899E-08	1.1686E-06	8.7535E-07
1.2657E-07	4.7151E-08	7.0283E-07	6.1101E-07
3.2935E-08	6.0990E-09	7.5412E-07	1.7616E-07
5.2539E-08	-3.9942E-08	-4.2697E-07	4.8587E-07
-6.5908E-08	-5.5242E-08	1.7805E-07	1.2182E-06
-2.3173E-08	-2.5156E-08	-4.9829E-08	1.0251E-06
-5.1964E-08	3.9062E-08	3.6875E-07	1.4284E-06
-9.6680E-08	3.5012E-08	1.9077E-09	9.8848E-07
2.2949E-08	4.2124E-08	1.5641E-08	2.1556E-06
5.4137E-09	8.7863E-08	1.3334E-06	1.8986E-06
1.0189E-08	6.3806E-08	1.1979E-06	9.4456E-07
-1.0776E-08	4.6791E-08	7.2873E-07	1.0433E-06
6.3519E-08	6.4896E-08	9.9286E-07	1.0474E-06
3.3401E-08	-8.5446E-09	6.4438E-07	9.6467E-07
5.1315E-08	3.4466E-08	1.4125E-06	1.2865E-06
1.2446E-07	-1.0902E-08	1.3111E-06	-3.6351E-07
9.6924E-08	-1.4232E-08	-3.8042E-07	-3.8483E-08
4.9360E-08	-2.1582E-08	-5.4037E-07	9.6768E-07
1.0215E-07	-8.9297E-08	-8.5526E-08	1.7613E-06
3.1027E-08	-7.1506E-08	4.0986E-07	1.4841E-06
-9.6642E-09	-4.5605E-08	4.9708E-07	2.1420E-06
-5.3132E-08	-6.1974E-08	1.8147E-06	1.4837E-06
-6.5018E-08	-2.1902E-08	1.1966E-06	6.2203E-07
-8.8546E-08	-8.5434E-09	8.8400E-07	5.5088E-07
-2.2195E-08	-3.5306E-09	7.8613E-07	9.6540E-07
-2.8123E-08	4.5873E-09	9.0451E-07	-1.0252E-07
-5.6677E-08	1.3363E-08	-8.6006E-07	1.4449E-06
1.1979E-08	-2.1769E-08	2.3314E-06	1.9154E-06
-5.3256E-09	-1.3192E-08	8.5841E-07	-8.0210E-07
-2.9702E-08	-7.3515E-08	1.8681E-07	8.0123E-07
-4.8790E-08	-5.5828E-08	2.7448E-07	3.6214E-07
-7.0029E-09	-4.8222E-08	3.0894E-07	1.0650E-06
-5.9697E-08	7.5328E-09	3.9745E-07	8.7408E-07
-7.1157E-08	1.9311E-09	1.3950E-06	9.7453E-07
-9.0640E-09	4.6860E-08	3.3513E-07	-1.0756E-06
1.5283E-09	4.3120E-08	-1.2830E-06	9.3904E-07
1.1063E-08	2.6341E-08	2.0987E-07	1.4587E-06
7.8083E-09	6.6647E-08	2.0156E-07	1.0261E-06
6.9442E-08	3.5261E-08	2.7497E-07	1.1244E-06
1.8541E-08	2.6334E-08	3.2983E-07	5.9273E-07
4.2005E-08	-8.0674E-08	-9.7373E-07	1.2543E-06
1.8122E-08	-6.3865E-08	8.4863E-07	2.5077E-06
1.3854E-08	-8.0756E-08	7.4560E-07	7.4807E-07
-5.9159E-08	-3.9306E-08	7.1085E-07	1.8055E-06
-5.6239E-08	-3.2599E-08	1.0321E-06	7.0432E-07
-7.2032E-08	4.1431E-09	1.0764E-06	1.3329E-06
-4.8974E-08	5.3613E-08	1.1556E-06	-3.3100E-07
-1.8895E-08	6.0123E-08	-3.0993E-08	4.0049E-07
-2.5784E-08	1.0404E-07	-3.7021E-07	-1.8408E-07
-1.0105E-08	9.8061E-08	-1.3063E-06	2.2367E-06
4.2239E-08	4.3159E-08	1.5130E-06	1.9812E-06
9.2019E-08	5.9481E-08	8.2775E-07	6.0426E-07
8.5830E-08	1.4368E-08	3.5851E-07	4.0128E-07
7.2338E-08	2.0129E-08	-1.5798E-07	1.2716E-06
5.6542E-08	-2.0631E-08	6.7064E-07	8.5332E-07
3.7200E-08	7.5766E-09	-1.7523E-07	1.2378E-06
3.2173E-08	-3.1466E-08	9.1564E-07	1.0316E-06
2.2819E-08	-1.0462E-08	-4.0211E-07	7.4220E-07
3.0859E-08	1.5404E-08	2.0050E-07	2.0931E-06
6.7644E-08	-6.5537E-09	1.4064E-06	1.7324E-06
-1.3098E-08	2.8951E-08	1.4412E-06	1.3974E-07
5.6481E-08	-3.9353E-08	6.9942E-08	6.4528E-07
3.3125E-08	-2.9303E-08	1.1237E-06	4.3453E-07
5.2445E-08	-5.3640E-08	-4.2014E-07	1.0888E-07
1.0625E-08	-4.5394E-08	6.2217E-07	9.3076E-07
-2.3254E-08	-9.8824E-08	-5.5671E-07	-6.0883E-07
-9.1678E-08	-1.3908E-08	-1.5519E-06	1.6693E-06
-3.5722E-08	-1.1900E-08	2.8631E-07	1.9605E-06
-1.0171E-07	-3.6036E-08	8.9383E-08	1.0349E-06
-4.4172E-08	1.5091E-08	-2.7734E-07	1.6103E-06
-6.4292E-08	2.2164E-08	4.0765E-07	1.7668E-06
-6.0562E-08	3.3657E-08	5.8208E-07	1.2331E-06
-3.6521E-08	2.6940E-08	-8.5378E-08	1.0453E-06
-3.8891E-08	-1.7956E-08	2.0665E-07	2.1632E-06
-1.7224E-08	-2.3812E-08	1.1492E-06	1.0617E-06
7.5854E-09	1.6011E-08	1.8783E-08	1.2328E-06
7.9923E-09	1.8383E-08	9.7910E-07	1.2147E-06
-2.4808E-08	7.1507E-10	-4.1291E-08	7.5989E-07
-2.9596E-08	4.1979E-08	3.3204E-07	1.4786E-06
-1.1689E-08	7.2730E-09	3.1713E-07	1.2089E-06
1.6267E-08	-2.3810E-08	4.5715E-07	1.0232E-06
1.8677E-08	4.5387E-09	-3.1551E-07	1.3887E-06
8.1066E-09	-1.9515E-08	7.9696E-07	1.6885E-06
-4.8783E-08	-1.4916E-08	-5.3230E-08	1.2227E-06
-2.6035E-08	1.5904E-08	1.1834E-06	2.1289E-06
