jMRUI Data Textfile

Filename: Export_to_jmrui.txt

PointsInDataset: 2048
DatasetsInFile: 1
SamplingInterval: 0.250000
ZeroOrderPhase: 0E0
BeginTime: 0E0
TransmitterFrequency: 1.2326E8
MagneticField: 2.8936E0
TypeOfNucleus:  
NameOfPatient:  
DateOfExperiment:  
Spectrometer:  
AdditionalInfo: 
SignalNames:  


Signal and FFT
sig(real)	sig(imag)	fft(real)	fft(imag)
Signal 1 out of 1 in file
9.0844E-07	-8.4352E-07	-6.0990E-07	-4.5218E-07
6.8334E-07	-1.0009E-06	-4.8076E-07	-6.8825E-07
3.4410E-07	-1.2579E-06	2.3604E-08	-3.9105E-07
1.5755E-07	-1.2742E-06	-1.4268E-07	-1.0708E-06
-4.3320E-07	-1.2593E-06	-2.6237E-07	-6.9836E-07
-7.1097E-07	-8.4313E-07	-2.4709E-07	-1.0529E-06
-8.6235E-07	-4.5948E-07	-9.2070E-07	-1.2015E-06
-6.3367E-07	-5.6769E-08	-1.8187E-06	3.0265E-07
-3.8288E-07	9.4093E-08	5.1414E-07	1.2653E-06
-1.8251E-08	9.8757E-08	5.8386E-07	-4.6484E-07
8.0789E-08	-8.7327E-08	6.3071E-07	-1.0770E-07
1.4932E-07	-2.4731E-07	4.0966E-07	-1.0704E-06
-3.5760E-08	-3.8804E-07	6.5159E-08	-5.5561E-07
-2.2194E-07	-3.2582E-07	5.3830E-08	-7.4601E-07
-3.8650E-07	-2.3851E-07	2.9100E-07	-7.4339E-07
-4.2149E-07	-3.7629E-08	-8.0634E-07	-1.0146E-06
-2.8723E-07	6.2889E-08	1.1130E-07	5.6071E-07
-1.5360E-07	8.6187E-08	3.7472E-07	-1.2242E-06
-6.3331E-08	-3.3008E-08	-6.3557E-07	7.4595E-08
-1.0077E-07	-1.0794E-07	6.9057E-07	-7.9749E-08
-1.9237E-07	-1.7692E-07	6.3776E-07	-6.1357E-07
-2.9716E-07	-1.4676E-07	1.5745E-07	-1.2640E-06
-4.0099E-07	-4.7935E-08	-3.2179E-07	-4.3050E-07
-4.0656E-07	1.1580E-07	8.9710E-08	-5.5792E-07
-3.1558E-07	2.3478E-07	2.8099E-07	-1.7496E-07
-1.5754E-07	2.9044E-07	6.1986E-07	-1.2979E-06
7.7896E-10	2.3607E-07	-6.6214E-07	-9.6645E-07
8.8284E-08	1.4467E-07	-9.1595E-08	-3.2149E-07
6.1314E-08	6.0328E-08	2.4096E-07	-8.2440E-07
-4.3040E-08	2.5071E-08	-7.1251E-07	-1.3220E-06
-1.4288E-07	-2.1598E-08	-1.0603E-06	2.5952E-07
-2.7824E-07	6.6320E-08	3.0257E-07	1.8066E-07
-2.7685E-07	1.9222E-07	3.5263E-07	-3.0295E-07
-2.1721E-07	2.9344E-07	3.2114E-07	-1.0230E-06
-9.6047E-08	3.5645E-07	-7.1416E-07	-8.8089E-07
9.6573E-08	3.7516E-07	-6.8884E-07	-1.3891E-07
1.4670E-07	3.1493E-07	-2.4348E-07	3.2401E-07
2.0507E-07	1.9388E-07	4.9372E-07	-1.0393E-07
1.8859E-07	1.4142E-07	4.8753E-08	-7.9161E-07
1.9261E-07	7.3830E-08	-5.7490E-07	-2.9419E-07
1.5071E-07	5.7755E-08	1.0212E-07	4.7005E-08
1.7601E-07	3.6380E-08	-3.3793E-07	-4.7669E-07
2.0350E-07	-1.7477E-08	-1.8487E-08	6.0017E-07
2.1817E-07	-1.5201E-08	7.6900E-07	-5.3903E-07
1.6278E-07	-7.7132E-08	-2.6171E-07	-6.3260E-07
1.6016E-07	-8.1407E-08	-3.7330E-07	-2.3079E-07
7.4658E-08	-1.1872E-07	-4.0056E-08	4.9531E-07
2.1934E-08	-1.1837E-07	8.4687E-07	-2.6236E-07
2.8306E-08	-5.3609E-08	1.6693E-07	-7.1471E-07
4.9461E-08	-1.8605E-08	-5.3631E-08	-6.9394E-07
4.0677E-08	-2.0254E-09	-3.3860E-07	-4.2285E-07
1.1995E-07	-2.3808E-08	-4.5327E-07	-3.4445E-07
9.3148E-08	-9.8601E-08	-1.5485E-07	4.3798E-07
1.0759E-07	-1.4092E-07	4.1990E-07	-6.9600E-07
3.1878E-08	-1.4064E-07	-8.9358E-07	-1.5158E-09
-7.5575E-08	-8.5280E-08	6.6018E-07	2.7215E-09
-1.3211E-07	-6.3944E-08	-1.0086E-06	-8.6178E-07
-8.8168E-08	-1.0869E-08	-4.4293E-07	1.1140E-06
-6.2654E-08	4.8114E-08	4.1323E-07	-3.2229E-08
6.3895E-08	2.1094E-08	-1.5349E-07	6.4153E-08
9.3606E-08	1.8347E-08	-3.7328E-07	-1.5265E-08
9.0354E-08	-9.4539E-08	-2.7490E-07	1.0190E-06
9.8261E-08	-1.8168E-07	5.1287E-07	3.3731E-07
-2.6717E-08	-2.3277E-07	-4.1734E-09	1.0300E-06
-1.2065E-07	-1.3495E-07	1.6682E-06	2.5907E-07
-2.2266E-07	-6.8884E-08	-3.5945E-07	-3.0917E-07
-1.7639E-07	-1.6701E-08	1.4320E-06	1.3940E-06
-1.6030E-07	6.7249E-08	1.3124E-06	-1.4024E-06
-9.2030E-08	1.1269E-07	-6.3181E-08	-2.4975E-07
-3.7649E-08	8.8589E-08	2.6853E-07	-3.2966E-07
-1.6536E-08	2.7657E-08	1.3042E-07	9.0056E-07
1.6414E-08	1.3481E-08	2.2893E-06	-3.8670E-07
-3.9993E-08	2.3097E-09	-1.5310E-07	-2.0102E-06
-4.9829E-08	3.8540E-08	-7.1748E-07	5.6944E-08
-2.1516E-08	6.4754E-08	4.7222E-08	1.0305E-07
-2.8815E-08	1.2159E-07	5.0680E-08	3.5413E-07
2.6261E-08	6.9201E-08	6.5968E-07	5.6410E-07
5.8783E-08	6.6211E-08	1.4046E-06	-1.5732E-07
-3.0329E-08	-2.8190E-08	4.9577E-07	-1.2259E-06
1.1321E-09	-1.3610E-08	-1.3548E-07	-2.7052E-07
-7.7306E-08	-2.8447E-08	2.9146E-07	-6.5084E-07
-1.1310E-07	3.3555E-08	-7.1014E-07	-2.4829E-08
-1.0337E-07	7.6933E-08	7.0159E-07	4.7208E-07
-2.1483E-08	1.6571E-07	9.7661E-08	-7.3874E-07
5.9103E-08	1.1644E-07	-2.9754E-07	3.0206E-07
8.7074E-08	1.2369E-07	1.8374E-07	3.2435E-07
1.5364E-07	2.3451E-08	5.6296E-07	4.5680E-07
1.6100E-07	-3.8513E-08	6.7086E-07	-2.9550E-07
1.1373E-07	-8.8746E-08	-9.4909E-08	-1.8578E-07
1.9880E-08	-1.3049E-07	-8.5010E-08	6.6680E-07
-4.4557E-08	-9.6781E-08	9.4749E-07	7.9065E-07
-7.3825E-08	-8.8854E-09	1.0603E-06	2.6434E-07
-3.4686E-08	1.8119E-08	1.7366E-06	-2.3940E-07
-1.3587E-08	5.4206E-08	3.6763E-07	-1.4151E-06
3.9204E-08	9.5913E-08	2.0986E-07	1.9590E-07
1.2080E-07	4.2034E-08	8.2624E-07	-9.4918E-07
1.2480E-07	-1.5067E-08	-4.0473E-07	-5.0318E-07
1.2197E-07	-2.9157E-08	-1.0886E-07	-2.9048E-08
7.5072E-08	-9.4727E-08	-5.7428E-09	4.5096E-07
1.3644E-08	-1.2583E-07	5.7212E-07	3.2335E-07
-2.4356E-08	-7.0026E-08	6.3744E-07	2.1754E-07
-5.9125E-08	-3.2063E-08	7.6390E-07	1.5525E-07
-6.9127E-08	-1.2556E-08	1.4451E-06	-3.0816E-07
-5.8458E-08	-6.3488E-08	-6.5459E-08	-1.4461E-06
-4.6400E-08	-5.6163E-08	-1.8225E-07	7.5284E-07
-4.1725E-08	-5.7426E-09	9.4172E-07	-4.7894E-07
-5.2578E-08	-2.1986E-08	1.5911E-07	1.9742E-07
-6.6276E-08	7.9048E-09	1.0446E-06	-8.1009E-07
-8.2045E-08	4.2733E-08	-5.6928E-07	-4.6512E-07
-4.1997E-08	5.3617E-08	9.4928E-08	8.9717E-08
1.6794E-08	2.4353E-08	1.1693E-07	3.8353E-07
5.2144E-08	2.5419E-08	3.1902E-07	-4.4669E-07
-6.6185E-09	-4.0618E-09	-5.8279E-07	1.1619E-06
4.1407E-08	-2.1712E-08	1.8110E-06	3.2200E-07
2.0955E-08	-7.4532E-08	-2.5001E-07	-5.3359E-08
-5.1352E-08	-6.8979E-08	1.7747E-06	5.9816E-07
-5.0865E-08	-1.5161E-08	1.0419E-07	-1.1661E-06
-6.9380E-08	3.2610E-08	4.3298E-07	8.2363E-07
-1.9577E-08	4.6126E-08	1.0105E-06	-6.1613E-07
-4.2069E-08	8.8752E-08	-2.9484E-07	-4.1995E-07
1.2527E-08	7.6814E-08	-3.0818E-07	1.2572E-06
6.6167E-08	4.8539E-08	2.1116E-06	8.6493E-07
4.9848E-08	3.4052E-09	6.9861E-07	-7.6991E-07
3.0830E-08	-1.2865E-08	1.2368E-06	4.2907E-07
1.0321E-08	-1.5802E-08	7.2764E-07	-1.0963E-06
-2.8140E-08	1.1259E-08	4.5682E-07	4.6484E-07
-1.4652E-08	-2.3987E-08	1.1786E-06	-6.8522E-07
-2.9335E-08	2.9604E-08	4.2611E-07	-1.2506E-07
-1.5927E-08	4.4232E-08	1.0420E-06	-9.1738E-07
-6.1006E-08	7.4767E-08	-7.5717E-07	-6.9503E-07
-3.9466E-08	4.5595E-08	8.8114E-08	1.0940E-06
1.8923E-08	1.2322E-07	1.1036E-06	8.4806E-08
3.3414E-08	6.3067E-08	4.1374E-07	4.7299E-07
5.8668E-08	8.3687E-08	2.0023E-06	-5.0319E-08
4.8392E-08	4.1269E-08	-1.4021E-07	-1.1238E-06
1.1196E-07	2.2521E-08	9.5536E-07	1.2834E-06
7.3934E-08	-1.9907E-08	1.6060E-06	-1.2117E-06
8.1249E-08	-3.8971E-08	2.5864E-07	-2.5773E-08
7.1521E-08	-7.2988E-08	1.2229E-06	-9.0330E-07
1.9482E-08	-5.9978E-08	-2.6291E-07	-2.2471E-07
-2.5942E-08	-5.1898E-08	1.0967E-06	-2.8152E-08
-5.0160E-09	-5.1178E-08	1.3122E-07	-2.8226E-07
-7.4270E-08	-8.1074E-08	1.3409E-06	4.1220E-07
-3.1621E-08	-5.6978E-08	8.9990E-07	-1.1045E-06
-8.6723E-08	-2.4722E-08	4.2838E-07	3.3537E-07
-4.2368E-08	-1.8551E-08	2.2151E-06	-9.0626E-07
-2.1331E-08	-4.8802E-08	-3.4026E-07	-2.0497E-06
4.4163E-08	-2.3051E-08	-1.9040E-08	3.1771E-07
-1.7748E-08	-5.0283E-08	6.9366E-07	-1.0797E-06
-1.9121E-08	-5.2175E-08	-3.5294E-07	-4.0961E-07
-6.0454E-08	-4.0707E-08	-1.2806E-07	-3.9551E-07
-3.4311E-08	-3.6972E-08	-2.9605E-07	9.0095E-07
-3.7949E-08	1.9864E-08	1.6647E-06	4.4719E-07
-3.5627E-08	-1.0631E-09	1.1533E-06	-1.0163E-06
-2.4143E-08	-9.2600E-09	5.3740E-08	-1.2355E-06
-2.0224E-08	1.6142E-08	-4.5993E-07	-1.6035E-08
5.6212E-09	4.2090E-08	3.3961E-07	4.0637E-09
-7.9613E-09	6.7038E-09	2.1401E-07	2.7162E-07
3.0139E-08	6.8399E-10	8.3190E-07	-1.8932E-07
1.1357E-08	-2.9072E-09	2.9622E-07	-4.2765E-09
6.2571E-08	-3.4672E-08	9.7577E-07	-5.3396E-07
3.2014E-08	-4.3001E-08	-4.5815E-07	-4.1851E-07
-5.9346E-09	-3.7001E-09	6.6884E-07	5.8084E-07
-3.9736E-09	-2.1728E-08	6.2953E-07	-5.5742E-07
3.0328E-09	-2.2908E-08	6.2142E-11	-6.9272E-08
-8.4700E-08	-3.3307E-09	4.4299E-07	3.9872E-07
-5.4173E-08	1.9757E-08	7.6138E-07	9.2488E-08
-3.0613E-08	1.6905E-08	1.1889E-06	3.0639E-07
-8.8300E-08	3.5624E-08	1.4913E-06	-1.5368E-06
-3.7780E-08	1.2097E-07	-9.4605E-07	-9.3344E-07
1.4936E-08	3.2675E-08	3.3746E-07	1.8914E-07
7.6864E-08	5.8575E-08	-3.3812E-07	-3.7874E-07
6.4309E-08	3.2531E-08	9.3659E-08	4.9378E-07
1.2566E-07	-1.6221E-08	-5.9263E-08	5.7678E-07
1.0101E-07	6.6517E-10	1.5027E-06	9.1375E-07
1.0492E-07	2.9086E-09	7.6851E-07	-8.9507E-07
4.7115E-08	9.0141E-09	4.2741E-07	5.2462E-07
-2.9914E-08	-3.3438E-08	1.2368E-06	-4.9630E-07
3.4217E-08	-1.4800E-08	3.2918E-07	-3.8891E-07
2.1171E-08	-5.4698E-09	6.0343E-07	-4.5808E-07
3.1945E-08	-4.8565E-09	-9.6192E-08	-3.6197E-07
2.7920E-08	1.0043E-08	2.3276E-07	2.1365E-07
7.8886E-08	-3.0190E-08	1.7684E-07	8.6814E-08
1.5159E-08	-6.3100E-08	7.2079E-07	6.8314E-07
4.6959E-08	-7.0178E-08	1.0063E-06	-6.0773E-07
1.6135E-08	-6.4407E-08	-1.6533E-07	1.7323E-07
-5.3374E-08	-6.1434E-08	1.0278E-06	9.6634E-08
-5.4010E-08	-8.5849E-08	-5.0296E-08	-1.5084E-08
-6.8128E-08	-1.3509E-08	9.3209E-07	5.2497E-07
-6.6145E-08	-3.5559E-08	3.6765E-07	3.3198E-07
-4.5832E-08	2.7394E-08	2.0321E-06	6.9993E-07
-1.1290E-08	5.0928E-08	1.2705E-06	-1.3723E-06
-2.7728E-08	4.7720E-08	5.1969E-07	-5.9916E-07
-2.7427E-08	7.1289E-08	9.8129E-08	-6.0777E-07
-3.4981E-08	3.9229E-09	7.8258E-07	-7.3440E-08
7.4547E-09	2.5574E-08	-4.1003E-07	-8.8500E-07
1.5440E-08	9.9309E-09	4.9793E-07	1.4546E-06
-1.4490E-08	-1.5777E-08	1.5165E-06	-9.4993E-07
3.7766E-09	2.7617E-08	2.4576E-07	5.2009E-08
-2.6059E-09	-1.6014E-09	1.1240E-06	-1.3179E-06
2.7912E-08	3.1284E-08	-1.1622E-06	-1.8840E-07
2.0419E-08	-1.0039E-08	1.0937E-06	3.6970E-07
1.2451E-08	2.9264E-08	-4.4195E-07	-8.7207E-07
