jMRUI Data Textfile

Filename: Export_to_jmrui.txt

PointsInDataset: 2048
DatasetsInFile: 1
SamplingInterval: 0.250000
ZeroOrderPhase: 0E0
BeginTime: 0E0
TransmitterFrequency: 1.2326E8
MagneticField: 2.8936E0
TypeOfNucleus:  
NameOfPatient:  
DateOfExperiment:  
Spectrometer:  
AdditionalInfo: 
SignalNames:  


Signal and FFT
sig(real)	sig(imag)	fft(real)	fft(imag)
Signal 1 out of 1 in file
6.0219E-07	-3.3101E-07	1.7982E-07	-7.3608E-07
3.7050E-07	-5.7867E-07	-1.1009E-06	-1.1206E-06
2.5149E-07	-6.1337E-07	-1.1009E-06	1.1749E-06
1.2581E-07	-6.4880E-07	9.6083E-07	3.7280E-07
-2.5933E-07	-6.0997E-07	-7.9049E-08	-7.4660E-07
-3.6499E-07	-4.3559E-07	-1.0049E-06	2.1182E-07
-4.5725E-07	-1.7552E-07	4.8355E-07	1.3772E-06
-2.9781E-07	-5.1169E-09	8.6745E-07	-7.3887E-07
-1.5363E-07	1.1821E-07	-5.9628E-07	3.9570E-07
-8.3354E-10	1.1651E-07	9.3675E-07	2.7870E-07
8.5300E-08	-3.3598E-08	2.3372E-07	-2.3619E-07
9.1411E-08	-1.9178E-07	2.2751E-07	-4.2669E-07
-4.8584E-08	-2.9588E-07	-5.8817E-07	6.5792E-07
-1.3517E-07	-2.1936E-07	1.6609E-06	6.7977E-07
-2.4599E-07	-1.6165E-07	6.7110E-07	-1.0703E-06
-2.5534E-07	-1.6404E-08	5.6090E-07	-3.5763E-07
-2.0778E-07	2.8156E-08	1.7247E-07	-1.1868E-06
-9.5017E-08	8.9111E-08	-1.3961E-07	-3.4607E-07
-3.9146E-08	1.3133E-08	1.7021E-07	-1.2795E-06
-1.4141E-08	-6.7661E-09	-1.7416E-06	-8.7151E-07
-9.0389E-08	-1.1287E-07	-9.7366E-07	1.1644E-06
-1.7546E-07	-1.0346E-07	2.3218E-07	4.1007E-07
-2.5152E-07	-3.2002E-08	-1.2385E-07	3.5271E-07
-2.0604E-07	6.8257E-08	2.3933E-07	1.2867E-07
-1.6855E-07	1.8158E-07	-7.4040E-08	2.6142E-07
-6.6181E-08	2.0164E-07	4.1075E-07	-5.9411E-08
5.2029E-08	1.3091E-07	-3.5578E-07	-1.5972E-08
5.6081E-08	3.8126E-08	2.3693E-07	1.8225E-07
1.7369E-08	-2.3677E-08	-3.7426E-07	1.8177E-07
-5.0602E-09	-8.3416E-08	8.3714E-07	4.2517E-07
-1.2339E-07	-6.1211E-08	-2.8624E-07	-1.0235E-06
-2.5063E-07	1.0430E-08	-7.1566E-07	8.2259E-07
-2.1406E-07	1.4640E-07	5.8166E-07	3.3557E-07
-1.4423E-07	1.6170E-07	4.1907E-08	-3.4094E-07
-7.9527E-08	2.5463E-07	-7.6503E-07	2.8890E-07
-2.7400E-10	2.0859E-07	6.9358E-07	9.8671E-07
9.4472E-08	1.4998E-07	1.3454E-07	-1.0209E-06
1.3012E-07	1.5399E-07	-1.0069E-06	7.6080E-07
1.2249E-07	9.0783E-08	2.7836E-07	5.0170E-07
1.3020E-07	9.3121E-09	-1.2469E-07	7.9851E-07
1.4872E-07	3.1365E-08	6.3975E-07	1.7290E-07
1.0783E-07	3.3581E-08	-3.3874E-07	4.2473E-07
1.6273E-07	1.6223E-08	4.0156E-07	4.0663E-07
1.4553E-07	-1.1896E-08	-4.9845E-07	8.2537E-07
1.2161E-07	-3.5958E-08	1.1976E-06	1.4402E-06
8.9865E-08	-4.9342E-08	1.3777E-06	-5.1985E-08
8.7052E-08	-1.4614E-08	7.4767E-07	-6.5250E-07
6.1640E-08	-3.7432E-08	-3.5752E-08	-3.4020E-08
4.3633E-08	-2.4006E-08	8.3427E-07	-6.2817E-07
1.6190E-08	2.2894E-08	-1.4052E-06	-4.7808E-07
1.3291E-07	3.9298E-09	3.6670E-07	1.1468E-06
1.1134E-07	-1.9195E-08	-6.7987E-07	-4.7159E-07
9.6159E-08	-7.0331E-08	-2.0413E-08	2.1642E-06
9.9340E-08	-9.8452E-08	1.2842E-06	-3.1949E-07
2.3276E-08	-7.9613E-08	-6.3695E-07	8.2365E-07
-3.7071E-08	-1.0029E-07	1.4647E-06	1.0020E-06
-8.0334E-08	-3.5927E-08	8.6523E-07	-4.8648E-07
-8.8741E-08	-2.6056E-08	4.1278E-08	-1.4865E-07
-2.1243E-08	3.2562E-09	3.4045E-07	3.5819E-07
2.8146E-08	3.2910E-08	2.5239E-07	-2.4820E-07
5.6701E-08	5.5068E-08	-1.5394E-07	4.0314E-07
4.5254E-08	-1.5334E-08	-2.0901E-09	3.0208E-07
6.9478E-08	-6.4558E-08	2.4349E-07	1.4183E-06
2.7315E-08	-9.9090E-08	1.7828E-06	2.8463E-09
-2.0212E-08	-9.7490E-08	-6.8915E-08	-5.7448E-07
-3.9313E-08	-9.6560E-08	3.1057E-07	2.0437E-07
-1.0648E-07	-5.3258E-08	-2.4648E-07	6.0975E-08
-1.9514E-07	4.3536E-08	3.2601E-07	7.7988E-07
-1.6253E-07	1.1615E-08	3.9149E-07	3.2758E-07
-1.1906E-07	7.8941E-08	7.9625E-07	4.0873E-07
-1.2858E-07	6.5730E-08	3.2435E-07	-4.1902E-07
-5.9187E-08	1.1081E-07	-6.3638E-08	2.6511E-07
-6.9617E-08	9.2847E-08	-2.0112E-08	9.5365E-08
-2.9655E-08	1.1469E-07	-1.4867E-07	7.2811E-07
6.0980E-08	5.6821E-08	2.3261E-07	3.1503E-07
4.7440E-08	5.4566E-08	-7.1373E-07	9.4466E-07
4.6317E-08	4.1776E-08	6.6091E-07	2.0369E-06
2.1662E-08	2.0099E-08	1.3706E-06	8.6809E-07
2.2608E-08	-1.5847E-08	1.0670E-06	8.6634E-07
-3.0036E-08	-7.3283E-08	1.5300E-06	5.1611E-07
-7.0269E-08	2.0976E-09	1.3043E-06	2.1079E-07
-6.0702E-08	2.9271E-08	1.4183E-06	-1.7502E-07
-6.6926E-08	4.4344E-08	7.2260E-07	-3.4506E-07
1.8634E-08	9.8756E-08	8.3320E-07	6.8766E-08
5.1981E-08	9.1301E-08	9.5439E-07	-1.5010E-07
1.3003E-07	7.7465E-08	7.9641E-07	-5.0325E-07
1.4542E-07	2.5756E-08	1.1107E-07	-4.6067E-08
9.8020E-08	2.8279E-09	1.2116E-06	3.3803E-07
7.3330E-08	-7.7117E-08	9.2643E-07	-1.0163E-06
7.4888E-08	-7.2941E-08	-5.3007E-08	-6.5914E-07
8.5429E-09	-7.5299E-08	-2.4495E-07	4.5667E-08
-1.7522E-08	-1.6182E-08	7.5283E-07	2.7446E-07
-6.3683E-08	-3.5850E-09	3.5791E-08	-9.9561E-07
2.6112E-08	5.4733E-08	-9.3932E-07	5.7039E-07
4.2150E-08	1.4983E-08	3.9940E-07	1.1692E-06
7.7006E-08	-3.1013E-09	1.1022E-06	5.6376E-07
7.7686E-08	-1.0086E-07	7.9713E-07	-2.8802E-07
9.2666E-08	-8.9306E-08	2.6309E-07	-1.2245E-07
3.3942E-08	-8.9749E-08	-1.3021E-07	1.6853E-07
-1.8646E-09	-1.1532E-07	5.1709E-07	8.8805E-07
-1.3080E-08	-4.4638E-08	4.8093E-07	1.3850E-07
-2.4537E-08	-1.5829E-08	7.7247E-07	1.1534E-06
-2.4263E-10	-4.0314E-08	1.4984E-06	-2.1009E-07
-5.8255E-10	-1.7184E-09	8.4287E-07	9.9620E-08
2.5709E-09	3.9572E-09	9.6981E-07	-1.2018E-06
3.5642E-08	-8.5628E-08	-1.1327E-06	2.4324E-07
-1.0126E-10	-4.6851E-08	1.2102E-06	1.3025E-06
-3.6740E-08	-1.6134E-09	1.2392E-06	-1.6660E-07
-2.5446E-08	-4.0622E-08	1.1395E-06	-4.0664E-07
4.2764E-09	-5.5914E-09	4.4177E-07	-9.8687E-07
-8.6992E-08	3.7038E-08	-6.0756E-07	-3.9966E-07
-4.6634E-08	-7.5457E-09	1.8894E-07	1.1297E-06
-6.4639E-08	2.5124E-09	1.0592E-06	-5.5506E-07
2.7911E-08	-6.3956E-09	-6.0287E-07	5.0075E-07
-3.1830E-08	4.3293E-09	1.3846E-06	3.5629E-07
-3.2971E-08	-4.7426E-09	-3.8738E-07	2.9519E-08
-6.1190E-08	-2.4263E-08	1.7520E-06	1.1226E-06
-1.0188E-07	1.0858E-08	7.8078E-07	-1.5780E-06
-9.6917E-08	1.5445E-09	-7.0083E-07	4.9159E-07
-5.2025E-08	5.0466E-08	1.1542E-06	1.0636E-06
-3.2147E-08	5.9082E-08	1.8534E-06	-5.0035E-07
-4.0226E-08	7.9840E-08	3.8039E-07	-1.5717E-06
5.3488E-09	3.6719E-08	-1.0219E-06	-3.7511E-07
3.3657E-09	3.5160E-08	3.2592E-07	1.3220E-06
1.6042E-08	7.5563E-09	1.4482E-06	-1.0262E-06
-2.8677E-08	-4.7261E-08	-1.2779E-06	-3.7890E-07
2.5449E-09	-3.1856E-08	4.2369E-07	4.5980E-07
-7.3504E-08	-2.2679E-08	-1.1178E-06	4.0280E-07
-5.4318E-08	-7.9210E-09	1.2092E-06	1.6611E-06
-7.6884E-08	2.4388E-08	1.7864E-07	-2.6354E-07
-3.5170E-08	3.8198E-08	9.6378E-07	1.3386E-06
-2.3048E-08	1.2736E-07	4.6928E-07	-4.4259E-07
2.4275E-09	7.7386E-08	7.9042E-07	1.5652E-06
8.3041E-08	5.4593E-08	1.4745E-06	-7.4193E-07
9.5644E-08	7.0042E-09	-3.8933E-08	8.2328E-07
6.6924E-08	7.7857E-08	2.0348E-06	2.4211E-07
8.3659E-08	-6.6055E-08	6.0403E-07	-7.2433E-07
7.2093E-08	-9.3925E-08	9.4845E-07	2.5928E-07
5.6493E-08	-4.9161E-08	1.2660E-06	-1.2735E-06
-4.2105E-09	-6.1120E-08	-1.1856E-06	-6.7538E-07
1.0937E-08	-6.7158E-08	6.7948E-07	1.5587E-06
-1.9045E-08	-8.2749E-08	1.4724E-06	-8.9333E-07
1.5688E-08	-5.9346E-08	-2.1918E-07	-7.7949E-07
-3.1578E-08	9.3767E-09	-7.3384E-07	1.7704E-07
3.7020E-09	-5.1182E-08	4.0694E-07	1.2474E-06
-1.0216E-08	-6.8816E-08	6.7560E-07	3.1005E-07
-4.0057E-08	-5.9798E-08	1.1741E-06	8.9350E-07
-2.7652E-09	1.9045E-09	1.3259E-06	-5.5766E-07
-7.2641E-08	-3.6049E-08	9.0124E-07	-2.2500E-07
-5.9094E-08	5.0524E-08	2.9860E-07	-1.2476E-06
-3.1050E-08	-7.8484E-09	-4.5967E-07	5.1877E-07
-3.8663E-08	-1.5318E-08	9.3763E-07	1.3175E-07
2.5044E-08	6.6706E-08	6.0091E-07	-3.2931E-07
-3.5276E-08	1.7764E-08	-3.2469E-07	-8.0805E-07
-1.8583E-08	3.0976E-08	-4.6075E-07	1.2723E-06
-2.1553E-08	1.6817E-08	1.2566E-06	2.1768E-07
-1.4829E-08	1.0396E-08	2.4213E-07	9.0877E-08
-1.9320E-08	8.2509E-09	5.4809E-07	-2.9597E-07
6.4991E-09	7.6823E-09	-5.5961E-07	5.1835E-07
4.1732E-08	1.8922E-08	7.3626E-07	9.1630E-07
1.0872E-08	1.0835E-08	4.7761E-07	8.6666E-07
1.6074E-08	-1.6996E-09	1.8253E-06	7.7984E-07
2.6162E-08	-2.2326E-08	1.2631E-06	-5.2004E-07
3.0337E-08	-3.5785E-08	1.1001E-06	-1.6691E-07
-4.5612E-08	-3.7070E-08	8.9124E-07	-1.1287E-06
-7.2767E-08	-3.6224E-08	-6.3839E-07	-3.3947E-07
-8.2636E-08	-2.0984E-08	8.0277E-07	9.1505E-07
-5.5039E-08	4.6758E-08	1.0072E-06	-7.3907E-07
-5.1810E-08	2.2699E-08	2.0115E-07	-1.7644E-07
-2.3301E-08	5.7826E-08	2.4169E-07	-5.1789E-07
4.4125E-08	1.0655E-07	-1.8220E-07	4.9870E-07
6.0847E-08	2.7236E-08	8.8960E-07	2.6916E-07
7.7460E-08	-5.6335E-09	8.5099E-07	-5.7067E-08
5.6830E-08	3.6837E-08	5.0785E-07	-1.0987E-06
8.3982E-08	-8.4165E-10	-8.1762E-07	1.6239E-07
3.1215E-08	-2.5872E-08	7.4792E-07	4.2375E-07
7.2794E-09	-1.3509E-08	5.5043E-08	-3.8269E-07
8.4016E-09	2.5794E-08	-2.4477E-07	1.9865E-07
3.6126E-08	-3.3621E-08	8.4850E-09	8.8143E-07
2.0040E-09	1.4442E-08	9.3116E-07	4.0113E-07
7.5127E-08	2.7359E-08	2.0470E-07	4.4779E-08
4.6927E-08	2.6208E-08	5.2339E-07	6.0343E-07
7.5715E-08	2.5937E-09	9.8514E-07	-1.0631E-07
3.3300E-08	-7.5924E-09	-3.6766E-07	-5.9925E-07
1.9542E-08	-4.4536E-08	-2.7463E-07	1.4064E-06
3.9003E-08	-1.2804E-09	1.1566E-06	2.7438E-07
-2.1408E-08	-6.1198E-08	-1.3374E-07	5.3750E-07
8.7214E-09	-1.0463E-07	1.0338E-06	8.5764E-07
-1.6658E-08	-5.3084E-08	7.5263E-07	3.8943E-07
-4.3999E-08	-6.5233E-09	9.8290E-07	1.3883E-07
-3.8250E-08	3.4415E-09	2.7254E-07	5.3259E-07
-2.1235E-08	2.9570E-08	1.6558E-06	6.8543E-07
-2.0443E-08	4.5468E-08	1.0439E-06	-7.9381E-07
1.5270E-08	5.5079E-08	-2.7525E-08	1.0191E-07
1.9902E-08	5.5800E-08	1.4193E-06	8.1955E-07
4.5790E-08	1.9797E-10	1.1483E-06	-1.6487E-06
-6.2216E-08	-3.4000E-09	-1.2483E-06	3.9112E-07
-1.0390E-08	1.9000E-08	1.6374E-06	8.5307E-07
-1.6990E-08	-2.3885E-09	2.4653E-07	-8.6232E-07
1.8880E-09	-3.3075E-09	1.0821E-07	3.2018E-07
-5.6074E-09	-9.8682E-09	-4.5495E-09	3.4741E-07
4.0575E-09	4.0012E-08	5.7045E-07	7.5266E-07
-1.8054E-08	1.4339E-08	3.8474E-07	6.9399E-07
2.0771E-08	-1.3567E-08	1.3356E-06	9.2805E-07
-6.6342E-08	-3.5229E-08	1.2715E-06	1.5371E-07
