jMRUI Data Textfile

Filename: Export_to_jmrui.txt

PointsInDataset: 2048
DatasetsInFile: 1
SamplingInterval: 0.250000
ZeroOrderPhase: 0E0
BeginTime: 0E0
TransmitterFrequency: 1.2326E8
MagneticField: 2.8936E0
TypeOfNucleus:  
NameOfPatient:  
DateOfExperiment:  
Spectrometer:  
AdditionalInfo: 
SignalNames:  


Signal and FFT
sig(real)	sig(imag)	fft(real)	fft(imag)
Signal 1 out of 1 in file
7.9041E-06	-1.4555E-06	-6.1169E-06	6.4980E-07
1.0528E-05	-5.0398E-06	-4.7302E-06	2.6493E-06
5.2319E-06	-7.3524E-06	-2.2886E-06	2.4011E-06
1.4187E-06	-7.5468E-06	-2.5088E-06	9.9880E-07
-3.4050E-06	-5.6961E-06	-3.3750E-06	1.3322E-06
-5.3029E-06	-2.5360E-06	-3.2306E-06	3.0305E-06
-5.8881E-06	7.1301E-07	-8.0363E-07	2.7154E-06
-3.7722E-06	2.9628E-06	-1.8895E-06	9.3678E-07
-1.5397E-06	3.6690E-06	-2.4755E-06	2.6620E-06
1.0874E-06	2.9968E-06	-7.1145E-07	2.7539E-06
2.1344E-06	1.5531E-06	-7.7943E-07	1.3194E-06
2.4495E-06	1.7999E-08	-1.4746E-06	2.0700E-06
1.4427E-06	-1.0529E-06	-6.1973E-08	1.3138E-06
3.6908E-07	-1.3787E-06	-2.2978E-06	2.9821E-07
-9.2167E-07	-1.0290E-06	-2.3297E-06	2.6857E-06
-1.4295E-06	-3.4721E-07	-1.0666E-06	2.4760E-06
-1.7847E-06	2.4584E-07	-8.6532E-07	1.9273E-06
-1.5136E-06	8.3985E-07	-1.8215E-06	2.0247E-06
-1.4302E-06	1.1227E-06	-5.6548E-07	2.9631E-06
-1.2152E-06	1.4784E-06	-1.3727E-06	1.4038E-06
-1.2594E-06	1.7818E-06	-1.2772E-06	4.3017E-06
-9.8739E-07	2.1262E-06	1.7075E-06	2.0048E-06
-7.8498E-07	2.3796E-06	-9.9947E-07	8.4124E-07
-1.3924E-07	2.4515E-06	-8.7516E-07	1.8425E-06
2.9912E-07	2.1532E-06	-1.6243E-06	2.3469E-06
8.8503E-07	1.6932E-06	8.9396E-08	2.9672E-06
1.0142E-06	1.1485E-06	-9.0624E-07	1.3522E-06
9.3510E-07	6.2619E-07	-1.1762E-06	3.5078E-06
4.5150E-07	4.5070E-07	6.5352E-07	2.6695E-06
1.2435E-08	6.3242E-07	-3.3769E-07	1.8181E-06
-3.8364E-07	1.1167E-06	-7.5873E-07	2.6224E-06
-3.7201E-07	1.6612E-06	1.5681E-07	3.1976E-06
-2.2980E-07	2.0656E-06	8.1821E-07	1.9986E-06
3.5261E-07	2.2467E-06	-6.2419E-07	1.4600E-06
7.7609E-07	2.1676E-06	-1.0394E-06	3.3090E-06
1.3087E-06	1.8146E-06	1.3404E-06	3.3937E-06
1.5726E-06	1.3513E-06	7.3704E-07	1.0052E-06
1.6631E-06	9.6997E-07	-8.8250E-07	1.9576E-06
1.5281E-06	6.8236E-07	-5.6182E-07	2.8669E-06
1.4669E-06	4.4553E-07	4.3092E-07	3.4034E-06
1.3178E-06	1.9526E-07	8.3479E-07	2.2115E-06
1.1715E-06	-7.5487E-09	3.9240E-07	2.6043E-06
9.3401E-07	-2.1768E-07	9.0767E-07	1.7731E-06
6.4600E-07	-3.8921E-07	-4.0608E-07	1.8252E-06
2.8892E-07	-4.3754E-07	-3.0193E-07	2.8471E-06
7.3255E-08	-2.4326E-07	8.9223E-07	3.1448E-06
-5.4316E-08	6.9867E-09	5.6647E-07	1.2560E-06
-4.6007E-09	3.5180E-07	-1.1222E-06	3.2718E-06
1.6126E-07	5.3255E-07	1.5863E-06	3.6140E-06
5.0370E-07	5.6114E-07	1.1773E-06	2.1583E-06
6.1430E-07	3.7274E-07	1.1016E-06	1.8641E-06
7.6500E-07	4.5465E-08	3.3582E-07	2.0283E-06
5.0245E-07	-2.8506E-07	8.7390E-07	1.6118E-06
2.3440E-07	-4.3687E-07	-8.6327E-07	2.1068E-06
-1.6430E-07	-3.6976E-07	1.2472E-06	3.0715E-06
-4.8190E-07	-1.6932E-07	-4.0797E-09	6.8539E-07
-4.8360E-07	1.5341E-07	-1.4433E-06	3.0157E-06
-2.9544E-07	5.0554E-07	1.3893E-07	3.9181E-06
2.8386E-08	6.0188E-07	1.2797E-06	3.1342E-06
3.6494E-07	4.4867E-07	1.0098E-07	2.0071E-06
4.7994E-07	2.3594E-07	-4.2652E-07	3.9909E-06
5.2497E-07	-7.7015E-08	1.6210E-06	3.9439E-06
3.4245E-07	-3.3833E-07	1.1003E-06	2.6303E-06
1.1647E-07	-3.5224E-07	7.7865E-07	3.9888E-06
-1.7119E-07	-2.7030E-07	3.1098E-06	3.4531E-06
-3.4070E-07	-6.6384E-08	2.0453E-06	7.5154E-07
-2.8878E-07	2.1577E-07	-2.9890E-07	2.1536E-06
-2.0719E-07	3.7370E-07	1.6036E-06	3.6783E-06
-6.8227E-08	2.9750E-07	1.8015E-06	1.4693E-06
2.8684E-08	1.7707E-07	6.2009E-07	2.7349E-06
2.1699E-10	-1.4197E-09	2.1598E-06	1.5033E-06
-4.1674E-08	-5.2736E-08	-8.4686E-07	1.4626E-06
-2.1651E-07	-7.1636E-08	7.9403E-07	3.8565E-06
-2.2686E-07	-1.6412E-08	1.2430E-06	2.2361E-06
-2.1673E-07	1.8275E-07	9.1953E-07	2.6381E-06
-5.5370E-08	1.9100E-07	5.3627E-07	2.2586E-06
4.1750E-08	3.2058E-08	6.6468E-07	3.6406E-06
1.4155E-07	-6.0499E-08	2.3765E-06	2.5980E-06
1.5782E-08	-2.2362E-07	5.2362E-07	9.2339E-07
-1.4881E-07	-2.9420E-07	-8.3324E-07	3.3234E-06
-3.2640E-07	-2.3334E-07	1.1489E-06	3.9107E-06
-4.3265E-07	-2.1860E-08	1.1993E-06	3.5511E-06
-4.1498E-07	6.9218E-08	2.2082E-06	2.9888E-06
-2.3848E-07	2.0817E-07	7.5443E-07	2.2843E-06
-5.8346E-08	1.3681E-07	1.1106E-06	3.7514E-06
1.5529E-07	-3.8014E-08	2.0083E-06	3.3488E-06
1.7341E-07	-3.6190E-07	2.2247E-06	2.4279E-06
2.0240E-08	-5.6599E-07	9.8724E-07	2.5019E-06
-2.6966E-07	-7.7372E-07	1.8746E-06	3.1077E-06
-5.0540E-07	-6.4633E-07	1.2772E-06	2.7727E-06
-7.5724E-07	-4.9049E-07	2.8523E-06	3.5626E-06
-7.1572E-07	-1.7760E-07	2.9245E-06	7.6124E-07
-6.0786E-07	1.8620E-08	2.9109E-07	6.3025E-07
-3.4321E-07	1.5459E-07	-7.6252E-07	3.0816E-06
-1.7434E-07	9.7829E-08	1.9910E-06	3.9733E-06
-6.1553E-09	-9.2714E-08	1.0090E-06	1.8271E-06
-6.2541E-09	-3.3783E-07	9.2782E-07	4.3962E-06
-2.1308E-07	-5.2367E-07	3.1511E-06	2.5876E-06
-4.2899E-07	-6.4880E-07	1.0407E-06	1.7891E-06
-5.9708E-07	-7.1976E-07	1.1853E-06	3.2112E-06
-7.5243E-07	-5.5766E-07	2.0769E-06	2.8070E-06
-7.6232E-07	-4.0134E-07	1.5949E-06	2.1080E-06
-8.6770E-07	-2.8498E-07	9.1179E-07	2.6078E-06
-8.0591E-07	-1.2067E-07	1.4893E-06	3.4533E-06
-8.4005E-07	1.0361E-09	2.1911E-06	2.5802E-06
-7.6899E-07	8.3676E-08	1.4058E-06	2.8664E-06
-7.7699E-07	1.0628E-07	2.7316E-06	2.4650E-06
-6.6708E-07	1.3113E-07	8.3925E-07	1.4279E-06
-6.2469E-07	1.5624E-07	1.0961E-06	3.5683E-06
-3.8374E-07	2.2652E-07	2.3962E-06	2.7039E-06
-3.2665E-07	1.1868E-07	1.9616E-06	1.8003E-06
-2.5634E-07	2.3901E-08	9.2395E-07	1.9837E-06
-3.1387E-07	-5.4671E-08	1.1977E-06	2.2463E-06
-3.6292E-07	-4.3868E-08	-1.5387E-07	2.7958E-06
-5.9055E-07	-1.0230E-07	2.0834E-06	4.5892E-06
-6.8475E-07	-2.2368E-08	2.5260E-06	1.6760E-06
-7.2639E-07	1.3019E-07	6.4672E-07	2.4548E-06
-6.3992E-07	2.9097E-07	1.2006E-06	3.1972E-06
-5.2333E-07	3.1173E-07	1.8316E-06	3.2503E-06
-3.1078E-07	3.2860E-07	1.8976E-06	2.5871E-06
-2.1810E-07	2.4599E-07	1.6831E-06	2.2873E-06
-1.9118E-07	1.4625E-07	4.6418E-07	2.6101E-06
-2.2659E-07	6.9501E-08	2.0099E-06	4.0756E-06
-3.1095E-07	-3.0609E-08	2.1193E-06	1.5079E-06
-3.8595E-07	2.1933E-09	-1.5850E-07	3.1486E-06
-4.4740E-07	1.1555E-07	2.2330E-06	4.4688E-06
-4.2305E-07	2.2262E-07	2.6776E-06	2.1434E-06
-3.0965E-07	3.2403E-07	8.5738E-07	2.8416E-06
-2.3306E-07	3.2370E-07	2.8712E-06	3.2605E-06
-1.3461E-07	2.9907E-07	1.3259E-06	9.4416E-07
-1.8007E-07	1.9560E-07	-9.0639E-08	3.4001E-06
-1.2807E-07	1.5588E-07	1.7984E-06	4.2153E-06
-2.2044E-07	1.4199E-07	2.9840E-06	2.7609E-06
-1.9585E-07	1.4314E-07	1.0465E-06	1.4480E-06
-1.8609E-07	1.6550E-07	4.1718E-07	3.4340E-06
-1.1850E-07	1.8673E-07	1.3981E-06	3.8359E-06
-5.0649E-08	1.9087E-07	2.5300E-06	3.2803E-06
-3.2948E-08	4.9569E-08	9.5589E-07	1.9386E-06
-4.7044E-08	2.0299E-09	5.1724E-07	4.2545E-06
-6.4760E-08	-5.2789E-08	2.1461E-06	4.3404E-06
-1.7149E-07	-9.9820E-08	3.1023E-06	3.2068E-06
-2.2283E-07	-5.0511E-09	1.1039E-06	2.2692E-06
-3.5643E-07	-2.6030E-08	2.3304E-06	4.5569E-06
-3.5102E-07	1.2267E-07	2.5943E-06	1.3304E-06
-2.9634E-07	1.5890E-07	-5.8768E-08	3.5177E-06
-1.3794E-07	2.7071E-07	2.3930E-06	4.1855E-06
-1.2540E-07	2.0418E-07	1.8968E-06	2.9122E-06
5.8678E-08	9.8713E-08	1.0808E-06	4.1312E-06
4.9700E-08	5.5970E-08	3.7105E-06	4.8737E-06
2.3416E-08	-2.9747E-08	3.3307E-06	1.4656E-06
-1.2303E-07	-1.1399E-07	1.3485E-06	3.0754E-06
-1.1655E-07	-7.7745E-08	2.5661E-06	3.1293E-06
-1.9599E-07	-2.6476E-08	2.8045E-06	2.8196E-06
-1.4462E-07	-6.7552E-09	1.6199E-06	1.1980E-06
-1.3072E-07	3.8327E-08	2.4250E-07	4.3427E-06
-5.0975E-08	1.3244E-07	3.7971E-06	3.9734E-06
-2.8719E-08	7.7833E-08	2.6879E-06	1.7590E-06
-5.7545E-09	7.0273E-08	1.5561E-06	2.2560E-06
5.5991E-08	1.1238E-08	1.9728E-06	2.9676E-06
4.9597E-08	-8.4929E-08	1.7931E-06	1.9955E-06
1.4885E-08	-1.2867E-07	1.4552E-06	2.9456E-06
-1.7691E-08	-1.6873E-07	1.3706E-06	1.5528E-06
-3.9382E-09	-1.3654E-07	-5.8136E-07	3.5643E-06
-3.8343E-08	-1.3477E-07	1.4511E-06	4.3709E-06
-5.6962E-08	-1.6301E-07	1.3274E-06	4.4005E-06
-8.7126E-08	-8.5743E-08	2.8773E-06	4.4395E-06
-1.5137E-07	-7.8351E-08	3.0406E-06	2.8222E-06
-1.0029E-07	-7.5694E-08	1.0249E-06	2.2355E-06
-7.1013E-08	-6.0980E-08	1.3322E-06	5.4361E-06
5.0348E-09	-4.5203E-08	4.4498E-06	3.0747E-06
5.4114E-08	-3.1627E-08	1.5099E-06	1.9528E-06
1.1336E-07	-1.1306E-07	1.9281E-06	2.9615E-06
1.0813E-07	-1.8106E-07	8.9514E-07	3.0755E-06
6.7896E-08	-2.2471E-07	2.1367E-06	4.0830E-06
2.2930E-08	-2.4876E-07	1.9148E-06	2.8070E-06
3.7481E-09	-2.7558E-07	1.1803E-06	3.8046E-06
-2.7928E-08	-2.7805E-07	2.5250E-06	4.1702E-06
-6.3682E-09	-2.3919E-07	1.9855E-06	2.5630E-06
-1.8661E-08	-2.8322E-07	9.7545E-07	4.6903E-06
1.9214E-08	-2.2824E-07	3.6864E-06	4.1011E-06
-5.8606E-08	-3.1635E-07	2.1694E-06	2.6888E-06
-2.4241E-08	-3.0215E-07	2.1540E-06	3.3540E-06
-4.2202E-08	-3.3473E-07	1.5176E-06	3.6618E-06
-1.1101E-07	-4.2032E-07	2.8731E-06	4.4478E-06
-1.6621E-07	-3.9303E-07	3.2147E-06	3.1989E-06
-1.3995E-07	-3.6023E-07	3.2183E-06	2.5608E-06
-1.6301E-07	-3.6901E-07	1.7536E-06	1.4818E-06
-2.1011E-07	-3.2489E-07	2.9695E-07	3.2917E-06
-2.2388E-07	-3.3151E-07	1.9350E-06	4.5942E-06
-2.2347E-07	-3.3285E-07	2.4437E-06	3.2542E-06
-2.4905E-07	-3.1536E-07	1.8034E-06	3.8675E-06
-2.9575E-07	-2.5200E-07	2.7282E-06	3.4506E-06
-2.1997E-07	-2.4638E-07	2.0417E-06	3.2165E-06
-2.5012E-07	-2.7446E-07	1.8821E-06	3.0086E-06
-2.5190E-07	-2.0692E-07	1.3495E-06	4.6041E-06
-2.1074E-07	-2.6189E-07	4.0219E-06	3.5487E-06
-1.8857E-07	-2.6834E-07	1.2368E-06	2.2554E-06
-2.1645E-07	-2.9446E-07	2.5547E-06	4.1706E-06
-2.3988E-07	-3.0158E-07	1.5644E-06	2.2123E-06
-2.6056E-07	-2.4614E-07	1.5964E-06	4.6803E-06
-2.3623E-07	-2.7240E-07	2.5566E-06	2.7748E-06
-2.8443E-07	-2.7363E-07	1.1331E-06	3.9397E-06
-2.9078E-07	-2.2172E-07	2.3137E-06	3.5344E-06
-2.3817E-07	-2.3029E-07	9.8262E-07	3.9439E-06
-2.6912E-07	-2.4192E-07	2.2158E-06	4.9671E-06
-2.7397E-07	-2.3531E-07	3.1085E-06	4.3376E-06
