jMRUI Data Textfile

Filename: Export_to_jmrui.txt

PointsInDataset: 2048
DatasetsInFile: 1
SamplingInterval: 0.250000
ZeroOrderPhase: 0E0
BeginTime: 0E0
TransmitterFrequency: 1.2326E8
MagneticField: 2.8936E0
TypeOfNucleus:  
NameOfPatient:  
DateOfExperiment:  
Spectrometer:  
AdditionalInfo: 
SignalNames:  


Signal and FFT
sig(real)	sig(imag)	fft(real)	fft(imag)
Signal 1 out of 1 in file
6.6388E-06	-1.2601E-06	-4.4252E-06	1.2935E-06
7.9859E-06	-3.8398E-06	-1.1412E-06	1.8171E-06
3.9746E-06	-5.5504E-06	-1.2107E-06	-2.6359E-07
1.1917E-06	-5.6454E-06	-2.0148E-06	1.2758E-06
-2.3976E-06	-4.3182E-06	-1.1107E-07	8.7369E-07
-3.8188E-06	-1.9304E-06	-8.6827E-07	3.2038E-09
-4.2449E-06	4.5874E-07	-1.0497E-06	-1.6088E-07
-2.7131E-06	2.0681E-06	-2.1797E-06	7.2284E-07
-1.0637E-06	2.5331E-06	-4.2769E-07	1.1788E-06
7.5233E-07	2.0648E-06	-2.0593E-06	-3.7100E-08
1.4838E-06	9.7897E-07	-1.6306E-06	3.2041E-06
1.6905E-06	-1.1101E-07	1.7287E-06	1.4632E-06
8.8814E-07	-7.8532E-07	-3.0123E-07	-1.2987E-06
1.3614E-07	-9.0331E-07	-2.6765E-06	1.8122E-07
-7.8871E-07	-6.1331E-07	-2.3906E-06	2.3748E-06
-1.0654E-06	-1.4640E-07	-3.0774E-07	3.5432E-06
-1.2522E-06	2.9256E-07	1.6384E-06	1.2686E-06
-1.0317E-06	6.7116E-07	-9.2715E-07	-2.6173E-07
-9.7041E-07	8.3704E-07	-1.6545E-06	1.9345E-06
-9.0048E-07	1.0107E-06	-5.4012E-07	2.5601E-06
-9.3337E-07	1.2081E-06	5.2477E-07	2.1681E-06
-8.5256E-07	1.4815E-06	-2.2076E-07	1.1184E-06
-7.6733E-07	1.7029E-06	-5.0547E-07	2.5211E-06
-3.3316E-07	1.8306E-06	6.1011E-07	1.9227E-06
9.0725E-08	1.7465E-06	-4.3344E-07	2.1187E-06
5.7442E-07	1.4281E-06	9.7851E-07	3.1246E-06
7.1358E-07	9.4729E-07	1.6123E-06	1.5455E-06
7.1612E-07	6.1921E-07	7.3770E-07	1.3970E-06
3.6616E-07	4.0160E-07	9.5362E-07	1.6206E-06
4.4358E-08	5.8035E-07	1.1143E-06	1.0757E-06
-2.6833E-07	8.8405E-07	5.4417E-08	7.8534E-07
-2.9732E-07	1.3448E-06	-2.4467E-08	2.1650E-06
-2.0312E-07	1.6245E-06	7.9210E-07	2.0219E-06
2.1530E-07	1.7980E-06	1.0331E-06	2.2804E-06
6.4880E-07	1.6815E-06	1.5750E-06	1.6213E-06
9.9250E-07	1.4761E-06	1.7797E-06	1.7133E-06
1.1707E-06	1.0913E-06	1.7961E-06	-2.9800E-07
1.3135E-06	7.6562E-07	-5.6987E-07	1.2631E-06
1.1471E-06	5.0784E-07	2.2743E-06	1.2720E-06
1.1127E-06	3.1863E-07	-6.2528E-07	-5.2175E-07
1.0086E-06	2.2400E-07	2.3779E-07	2.7908E-06
9.4465E-07	1.5478E-07	1.4368E-06	1.5847E-07
7.8681E-07	-8.7560E-08	-1.0250E-06	9.9866E-07
6.6795E-07	-1.5155E-07	1.6753E-07	2.3216E-06
4.0097E-07	-2.9231E-07	4.5545E-07	1.7351E-06
2.8397E-07	-2.2141E-07	2.7842E-07	2.0426E-06
7.4459E-08	-8.4425E-08	5.9438E-07	2.1818E-06
1.2334E-07	1.2375E-07	7.6825E-07	2.2250E-06
1.8038E-07	1.9043E-07	7.2046E-07	2.2815E-06
3.8247E-07	2.8708E-07	1.5999E-06	2.9872E-06
4.7080E-07	1.5172E-07	2.2530E-06	1.1862E-06
4.6567E-07	1.8044E-08	8.5889E-07	1.8635E-06
3.0209E-07	-1.5212E-07	2.4083E-06	1.3606E-06
7.8823E-08	-3.1710E-07	9.0248E-07	8.7383E-07
-1.4490E-07	-2.2029E-07	1.7196E-06	6.6203E-07
-2.8958E-07	-5.8344E-08	-7.6676E-07	7.7248E-07
-2.9463E-07	1.9117E-07	1.3757E-06	2.5279E-06
-1.6037E-07	4.1280E-07	-1.3248E-08	5.9843E-07
2.8870E-08	4.2398E-07	5.6298E-07	3.3001E-06
3.2295E-07	3.5060E-07	1.2099E-06	1.6067E-06
4.5560E-07	6.5731E-08	1.4207E-06	3.0353E-06
3.8225E-07	-1.4732E-07	2.1258E-06	8.6226E-07
2.1561E-07	-3.3187E-07	6.8637E-07	1.9467E-06
-1.6710E-08	-3.2569E-07	1.8584E-06	1.5353E-06
-1.8983E-07	-1.7116E-07	1.4172E-06	1.2697E-06
-3.1337E-07	3.0124E-08	7.6633E-07	2.0362E-07
-2.5872E-07	2.6375E-07	-9.2755E-07	2.1052E-06
-1.8587E-07	3.5336E-07	7.7606E-07	3.0072E-06
-4.5722E-08	2.8230E-07	9.7764E-07	3.0978E-06
4.1349E-08	1.6377E-07	2.1945E-06	2.9037E-06
1.4259E-10	-4.3381E-08	2.2548E-06	2.3435E-06
-5.6073E-08	-1.4445E-07	2.7607E-06	1.4142E-06
-1.6665E-07	-3.0173E-08	1.2649E-06	8.4395E-07
-1.8312E-07	4.7265E-08	1.2036E-06	2.0157E-06
-9.2030E-08	5.2030E-08	1.8059E-06	2.1511E-06
-7.2271E-08	1.6271E-07	2.7537E-06	1.5306E-06
2.8885E-08	1.2082E-08	1.5877E-06	-9.4262E-08
-4.3626E-09	-6.2578E-08	2.0319E-07	1.3975E-06
-3.5290E-08	-1.3176E-07	1.2401E-06	1.7830E-06
-1.1218E-07	-1.7538E-07	8.4037E-07	1.6976E-06
-2.5973E-07	-1.1795E-07	1.1878E-06	2.0082E-06
-2.9552E-07	-1.7358E-08	1.1429E-06	2.3711E-06
-2.5183E-07	7.6863E-08	2.5904E-06	1.9331E-06
-1.1113E-07	1.0204E-07	9.7223E-07	3.9139E-07
4.4399E-08	1.1152E-07	4.4030E-07	2.5029E-06
1.5469E-07	-8.2666E-08	1.7476E-06	2.1867E-06
1.7277E-07	-3.5456E-07	1.4936E-06	1.9189E-06
2.2245E-08	-5.2198E-07	1.4095E-06	1.8923E-06
-2.1937E-07	-5.6326E-07	1.6262E-06	2.3070E-06
-4.1763E-07	-5.6916E-07	2.0143E-06	1.7365E-06
-5.7939E-07	-4.3595E-07	1.6766E-06	1.7076E-06
-5.9509E-07	-1.6775E-07	1.7172E-06	1.4829E-06
-5.4434E-07	-7.6781E-09	1.4701E-06	1.8110E-06
-3.2741E-07	1.2495E-07	2.1505E-06	1.1254E-06
-9.6543E-08	1.0654E-07	-2.6122E-08	6.9796E-07
1.3246E-08	1.4243E-08	7.6397E-07	3.9339E-06
-3.7140E-08	-1.8558E-07	3.6009E-06	1.4197E-06
-5.1369E-08	-4.2501E-07	3.6917E-07	4.1244E-07
-2.7115E-07	-5.2979E-07	1.0871E-06	2.1968E-06
-4.3906E-07	-5.3202E-07	2.2718E-07	1.3284E-06
-6.0879E-07	-4.7579E-07	3.2739E-07	3.7469E-06
-6.5785E-07	-3.1947E-07	2.3435E-06	3.1153E-06
-7.2392E-07	-1.3985E-07	1.9145E-06	2.2794E-06
-6.1850E-07	-5.0893E-08	1.8728E-06	2.7464E-06
-5.8264E-07	-3.8125E-08	2.7518E-06	2.4103E-06
-5.4051E-07	9.3911E-08	2.4689E-06	1.6772E-06
-5.6220E-07	5.8150E-08	2.4527E-06	1.1272E-06
-4.9914E-07	6.9801E-08	8.5076E-07	9.6163E-07
-4.9410E-07	9.6051E-08	1.1584E-06	2.6065E-06
-3.8301E-07	1.2964E-07	1.9814E-06	2.3256E-06
-2.8490E-07	9.5380E-08	2.4283E-06	1.6991E-06
-2.6419E-07	1.1982E-07	1.0535E-06	1.0028E-06
-2.6592E-07	-3.1520E-08	8.8667E-07	2.7966E-06
-2.9241E-07	2.3026E-08	2.4508E-06	2.6515E-06
-4.1311E-07	7.3511E-09	2.1707E-06	8.5097E-07
-4.7989E-07	-3.5738E-08	-1.0315E-07	2.2812E-06
-5.6502E-07	6.7786E-08	2.8524E-06	3.3352E-06
-5.4942E-07	1.4925E-07	1.0582E-06	1.0368E-06
-4.3099E-07	3.4527E-07	1.8293E-06	4.2193E-06
-3.1505E-07	2.9997E-07	3.3487E-06	1.3219E-06
-1.7420E-07	1.9187E-07	1.3582E-06	1.9739E-06
-1.1165E-07	1.2761E-07	2.1316E-06	2.2865E-06
-1.3961E-07	1.0544E-07	2.5719E-06	2.1688E-06
-2.0274E-07	-1.4616E-08	1.8069E-06	9.5425E-07
-3.0201E-07	8.4675E-09	1.1644E-06	2.5419E-06
-4.1470E-07	1.0543E-07	1.9038E-06	2.4357E-06
-3.8573E-07	1.8463E-07	2.5952E-06	2.7181E-06
-3.3741E-07	2.7237E-07	1.7527E-06	1.5260E-06
-2.4122E-07	2.5270E-07	2.8616E-06	3.9905E-06
-1.4067E-07	2.7042E-07	4.0945E-06	-6.4313E-08
-1.7808E-07	2.3798E-07	7.9280E-07	1.7551E-06
-1.5573E-07	2.3342E-07	3.0163E-06	1.2025E-06
-1.7778E-07	1.4194E-07	7.2187E-07	2.0819E-06
-1.2018E-07	1.4830E-07	3.9555E-06	1.9968E-06
-1.4181E-07	2.5345E-07	1.3291E-06	6.6826E-08
-1.2162E-07	2.1722E-07	2.0562E-06	1.8285E-06
-3.0654E-08	1.3131E-07	1.2653E-06	4.3352E-07
4.1638E-08	1.6216E-07	9.9798E-07	2.0481E-06
3.8544E-08	2.6917E-08	1.6525E-06	1.4717E-06
-1.6073E-08	-4.9498E-08	9.6144E-07	1.4480E-06
-1.0982E-07	-1.0564E-08	8.1815E-07	2.2786E-06
-1.6276E-07	-8.6711E-09	1.6310E-06	2.1519E-06
-2.6261E-07	3.6460E-08	7.8335E-07	2.1473E-06
-2.7665E-07	5.1849E-08	1.8631E-06	3.1028E-06
-1.4866E-07	2.0835E-07	2.1633E-06	1.7565E-06
-7.5867E-08	2.4359E-07	1.4433E-06	1.8492E-06
-7.0828E-08	1.3848E-07	1.0698E-06	1.9255E-06
1.8828E-08	1.3881E-07	1.1251E-06	3.1287E-06
2.7826E-08	3.7176E-08	2.7548E-06	2.5222E-06
8.6230E-09	-8.4364E-09	1.5693E-06	1.1719E-06
-1.2745E-07	-9.3330E-08	9.6320E-07	2.2015E-06
-1.2003E-07	1.9431E-08	8.2280E-07	2.1996E-06
-1.5862E-07	-4.1824E-09	8.4822E-07	3.6694E-06
-1.2143E-07	9.2969E-08	2.5316E-06	3.0980E-06
-6.9711E-08	1.0456E-07	1.4887E-06	2.5394E-06
-5.8127E-09	1.6140E-07	2.4012E-06	3.5254E-06
7.6619E-08	1.4544E-07	2.7534E-06	1.8355E-06
1.1838E-07	9.1091E-08	1.3819E-06	2.3253E-06
8.6357E-08	4.1254E-08	2.0598E-06	2.4742E-06
5.3487E-08	-2.1326E-08	9.8781E-07	2.9711E-06
5.4531E-08	-5.4904E-08	3.2537E-06	4.0523E-06
1.8744E-08	-5.4941E-08	3.1567E-06	1.3650E-06
6.6964E-08	-8.6866E-08	1.8992E-06	2.1867E-06
5.4150E-09	-8.3950E-08	2.0709E-06	2.2535E-06
-4.3160E-08	-1.5358E-07	2.9621E-06	2.6301E-06
-5.7747E-08	-4.1756E-08	2.2493E-06	2.9848E-07
-1.1073E-07	-8.2174E-08	3.4359E-07	2.4349E-06
-7.1474E-08	-7.1113E-08	1.8625E-06	2.4595E-06
-4.2407E-08	-2.6084E-08	1.1634E-06	3.1416E-06
7.6960E-09	-2.2025E-08	2.9505E-06	2.7715E-06
3.3099E-08	-9.7891E-09	1.6541E-06	1.6484E-06
5.2192E-08	-8.8455E-08	9.9866E-07	2.8623E-06
8.1586E-08	-1.3355E-07	2.4864E-06	4.0459E-06
6.8428E-08	-2.0447E-07	3.5506E-06	1.5378E-06
2.0685E-08	-2.1663E-07	1.1874E-06	1.9039E-06
-3.2681E-08	-2.8892E-07	2.3138E-06	2.1085E-06
-3.4170E-08	-2.5680E-07	6.4348E-07	2.1812E-06
-3.3577E-08	-2.0607E-07	2.0483E-06	3.2833E-06
-4.5719E-08	-2.1874E-07	1.4823E-06	2.4461E-06
-2.1205E-08	-2.6141E-07	2.0498E-06	3.0698E-06
-9.3931E-08	-2.4657E-07	1.1006E-06	2.5855E-06
-4.3596E-08	-2.3269E-07	2.0804E-06	4.4771E-06
-1.0449E-07	-2.8476E-07	3.3575E-06	2.7600E-06
-7.7283E-08	-2.6437E-07	2.4267E-06	2.3370E-06
-1.6344E-07	-2.4831E-07	2.0663E-06	2.2412E-06
-1.5647E-07	-3.1381E-07	1.7883E-06	2.6252E-06
-2.3606E-07	-2.9797E-07	1.3342E-06	2.6640E-06
-1.5260E-07	-2.3770E-07	1.5518E-06	4.4002E-06
-2.0315E-07	-2.7135E-07	3.7581E-06	3.5192E-06
-2.2528E-07	-2.3458E-07	2.2855E-06	2.2382E-06
-2.0459E-07	-2.4123E-07	2.6748E-06	3.7038E-06
-1.9789E-07	-2.1379E-07	3.4430E-06	2.0570E-06
-2.5254E-07	-2.4920E-07	1.4951E-06	2.2083E-06
-2.2159E-07	-1.8115E-07	2.1367E-06	3.9619E-06
-1.8138E-07	-1.8848E-07	3.8855E-06	3.3977E-06
-2.0597E-07	-2.3371E-07	3.5353E-06	1.5005E-06
-2.4807E-07	-2.2639E-07	1.8604E-06	1.8006E-06
-2.1271E-07	-1.9733E-07	2.1481E-06	2.8350E-06
-2.3216E-07	-2.7244E-07	2.6330E-06	2.6274E-06
-2.5592E-07	-2.3299E-07	2.4888E-06	2.3355E-06
-2.7181E-07	-2.3323E-07	2.1920E-06	2.3617E-06
-3.1332E-07	-2.3612E-07	1.9099E-06	2.8245E-06
-2.5435E-07	-2.2163E-07	2.7086E-06	3.3820E-06
-2.4701E-07	-2.1547E-07	3.2828E-06	2.5786E-06
-3.0906E-07	-1.9325E-07	3.3226E-06	1.7980E-06
-2.9287E-07	-2.0927E-07	1.5969E-06	6.6552E-07
