jMRUI Data Textfile

Filename: Export_to_jmrui.txt

PointsInDataset: 2048
DatasetsInFile: 1
SamplingInterval: 0.250000
ZeroOrderPhase: 0E0
BeginTime: 0E0
TransmitterFrequency: 1.2326E8
MagneticField: 2.8936E0
TypeOfNucleus:  
NameOfPatient:  
DateOfExperiment:  
Spectrometer:  
AdditionalInfo: 
SignalNames:  


Signal and FFT
sig(real)	sig(imag)	fft(real)	fft(imag)
Signal 1 out of 1 in file
5.3054E-06	-7.4074E-07	-3.2098E-06	4.7025E-07
5.9491E-06	-2.4993E-06	-1.6856E-06	2.4715E-06
3.0569E-06	-3.8641E-06	9.5896E-07	7.4157E-07
1.0837E-06	-3.9596E-06	-9.2312E-07	-4.9811E-07
-1.5350E-06	-3.0525E-06	-1.2789E-06	7.9692E-07
-2.5480E-06	-1.4188E-06	-3.6224E-07	1.4107E-06
-2.8746E-06	1.9361E-07	-1.8107E-07	4.5244E-07
-1.8143E-06	1.3563E-06	-3.7007E-07	1.5657E-06
-7.2779E-07	1.6252E-06	5.4320E-07	1.7207E-07
5.4541E-07	1.2982E-06	-1.2166E-06	1.5746E-06
9.5857E-07	4.7921E-07	1.8634E-06	1.7224E-06
1.0259E-06	-2.1992E-07	6.8172E-07	-5.9300E-07
3.7405E-07	-6.0948E-07	-5.1822E-07	-2.7592E-07
-1.5635E-07	-5.6029E-07	-1.7457E-06	1.8691E-06
-6.8463E-07	-2.3238E-07	2.1290E-06	2.8529E-06
-7.7408E-07	1.3914E-07	1.5668E-06	-7.6317E-07
-8.0154E-07	3.7765E-07	5.6006E-08	2.5348E-07
-5.8222E-07	5.4868E-07	3.0548E-08	3.0434E-07
-5.6863E-07	5.3202E-07	1.7772E-07	1.0305E-06
-5.4166E-07	5.4527E-07	4.2218E-07	5.7958E-07
-7.4361E-07	6.2815E-07	2.0666E-07	7.9918E-07
-8.3710E-07	8.6876E-07	3.1104E-08	1.1720E-06
-7.5665E-07	1.2055E-06	1.4985E-06	1.7277E-06
-4.3256E-07	1.3939E-06	1.5375E-06	-7.0369E-07
-9.1003E-08	1.4192E-06	-5.8184E-07	2.3133E-08
2.5591E-07	1.2178E-06	3.8145E-08	9.2653E-07
5.1149E-07	8.7581E-07	1.1250E-07	1.1819E-06
4.9439E-07	5.9343E-07	8.3572E-07	9.1411E-07
3.0449E-07	4.1720E-07	-1.2026E-07	8.7642E-07
5.3415E-08	5.1115E-07	1.1117E-06	2.1481E-06
-2.5604E-07	7.0967E-07	2.1875E-06	3.8142E-07
-2.5164E-07	9.8035E-07	1.2860E-06	-6.7487E-07
-1.3129E-07	1.2696E-06	-3.1058E-07	-1.2230E-06
1.7603E-07	1.4606E-06	-1.4732E-06	6.4977E-07
4.7158E-07	1.3296E-06	-6.4522E-07	1.3282E-06
8.5962E-07	1.1002E-06	-3.8712E-07	2.3424E-06
9.6453E-07	8.4913E-07	1.3524E-06	1.6396E-06
9.9363E-07	5.6929E-07	1.8842E-07	1.2515E-06
9.2779E-07	3.7246E-07	1.9905E-06	1.5630E-06
8.3081E-07	3.1448E-07	2.1446E-07	-1.3725E-06
7.1682E-07	2.2616E-07	-2.1991E-06	2.2990E-06
6.6041E-07	1.1838E-07	2.0349E-06	3.2459E-06
5.7441E-07	3.4852E-08	1.5786E-06	-2.9843E-07
5.6086E-07	-5.6307E-08	-8.9771E-07	6.7689E-07
4.1937E-07	-8.6886E-08	-5.5258E-07	2.5567E-06
2.8958E-07	-1.3494E-07	1.3963E-06	3.1952E-06
1.5935E-07	-1.0459E-07	2.1458E-06	1.1629E-06
1.3061E-07	-3.0207E-08	7.4708E-07	1.2193E-06
6.8339E-08	1.1844E-07	1.2840E-06	1.5733E-06
2.2055E-07	1.4097E-07	1.2103E-06	1.4968E-06
2.3202E-07	1.0520E-07	1.6755E-06	1.2807E-06
2.7279E-07	2.0596E-08	1.5893E-06	8.3969E-07
2.1513E-07	-5.6920E-08	9.8994E-07	-9.5205E-08
7.0875E-08	-7.2784E-08	-6.1122E-07	1.4463E-06
-1.3820E-07	-8.4982E-08	1.6409E-06	2.2578E-06
-1.4973E-07	3.7366E-08	1.1391E-06	6.8373E-07
-2.2319E-07	1.8380E-07	9.3094E-07	1.3826E-06
-3.7581E-08	2.9033E-07	8.3607E-07	1.0659E-06
7.5625E-08	3.1750E-07	8.0753E-07	1.4740E-06
2.9809E-07	1.8260E-07	7.3588E-07	1.7158E-06
3.2596E-07	1.4583E-08	1.9703E-06	1.8040E-06
3.0137E-07	-2.0884E-07	9.7940E-07	-4.0320E-08
6.3336E-08	-2.5589E-07	-4.7958E-07	2.0442E-06
-1.1579E-07	-2.6503E-07	1.5090E-06	2.9816E-06
-2.6061E-07	-1.3439E-07	2.6432E-06	2.0525E-06
-3.7377E-07	1.9174E-08	2.7107E-06	4.3131E-07
-2.7726E-07	1.7355E-07	1.2520E-06	-1.1334E-07
-2.4817E-07	3.5697E-07	5.1860E-07	4.1362E-07
-6.4822E-08	3.1530E-07	6.4043E-08	1.2536E-06
3.3630E-08	1.9785E-07	8.8868E-07	2.0960E-06
-4.1554E-09	4.5495E-08	1.4646E-06	1.4157E-06
-4.2143E-08	-1.1335E-08	9.6470E-07	1.4872E-06
-8.0754E-08	-6.4317E-08	1.8860E-06	1.7486E-06
-7.9088E-08	-2.4796E-08	1.6434E-06	-1.5733E-07
-1.0311E-07	1.5724E-08	-1.0429E-06	9.7626E-07
-4.1023E-08	5.5764E-08	1.0564E-06	3.5909E-06
-3.4192E-08	6.3902E-09	2.5382E-06	1.0705E-06
-4.6719E-10	-3.7142E-08	3.6145E-07	1.0333E-06
-7.2496E-08	-1.3918E-07	1.2158E-06	2.6032E-06
-1.7036E-07	-9.6707E-08	2.3001E-06	1.2841E-06
-2.6796E-07	-9.3481E-08	4.3289E-07	1.1052E-06
-2.8936E-07	8.6861E-09	2.1053E-06	3.0758E-06
-2.2448E-07	1.5506E-07	2.7578E-06	-3.4789E-07
-1.2287E-07	1.7790E-07	-4.5856E-07	1.0390E-06
4.8854E-08	8.9526E-08	1.4580E-06	2.0793E-06
1.7818E-07	-5.4750E-08	6.5135E-07	1.9367E-06
1.3359E-07	-2.5794E-07	2.6864E-06	2.6327E-06
2.4313E-08	-3.6794E-07	2.4194E-06	-8.4241E-08
-1.5860E-07	-4.7521E-07	1.5245E-08	1.8854E-07
-3.1281E-07	-4.5264E-07	-3.9326E-07	2.5499E-06
-4.3832E-07	-2.7199E-07	1.7015E-06	2.8088E-06
-4.4632E-07	-1.2600E-07	9.0555E-07	2.3734E-06
-3.5273E-07	2.6022E-08	2.7185E-06	3.7667E-06
-2.4573E-07	6.3184E-08	3.7493E-06	1.2375E-06
-1.0832E-07	4.0751E-08	2.4286E-06	6.7660E-07
1.1772E-08	-3.6395E-08	2.0077E-06	6.1020E-07
1.3359E-09	-1.3544E-07	1.5637E-06	6.4455E-07
-1.2420E-07	-2.8937E-07	8.0773E-07	1.1320E-06
-2.3911E-07	-4.1951E-07	1.7933E-06	2.2330E-06
-3.7960E-07	-4.1251E-07	2.2908E-06	8.4063E-07
-4.8160E-07	-4.1267E-07	1.4329E-06	1.1899E-06
-5.5817E-07	-2.5785E-07	1.9653E-06	8.2836E-07
-5.9782E-07	-2.0906E-07	7.2023E-07	7.6796E-07
-5.0283E-07	-8.2639E-08	1.1048E-06	1.9666E-06
-5.3609E-07	-2.2842E-08	1.6485E-06	1.7176E-06
-4.7634E-07	1.9932E-08	2.1025E-06	1.5243E-06
-4.5888E-07	1.0597E-07	1.2870E-06	4.8467E-07
-4.0598E-07	1.3063E-07	6.0371E-07	2.3790E-06
-4.4533E-07	5.5024E-08	2.5936E-06	2.0418E-06
-3.2781E-07	5.0937E-08	2.1839E-06	1.4056E-06
-2.8622E-07	5.1335E-08	2.7422E-06	2.7598E-08
-2.4591E-07	1.1441E-08	-6.4602E-07	1.8492E-07
-2.3859E-07	-5.9402E-08	1.3730E-06	3.2210E-06
-2.9523E-07	-5.7492E-08	1.5933E-06	7.2399E-07
-3.6573E-07	-9.7354E-08	8.4706E-07	3.0506E-06
-3.8685E-07	-3.6619E-08	3.2906E-06	1.8315E-06
-5.0439E-07	5.9117E-08	1.9962E-06	9.1691E-07
-4.3719E-07	1.1519E-07	2.1469E-06	8.3815E-07
-4.1222E-07	2.2359E-07	1.2777E-06	7.6317E-07
-2.8427E-07	1.7886E-07	1.4554E-06	9.2304E-07
-1.7883E-07	1.2290E-07	4.2777E-07	1.1533E-06
-1.5979E-07	1.4529E-07	1.4282E-06	2.3915E-06
-1.6261E-07	1.9180E-08	1.6737E-06	1.1600E-06
-1.9627E-07	8.1358E-08	1.2369E-06	1.9089E-06
-2.2249E-07	2.7789E-08	1.6402E-06	1.0312E-06
-2.2778E-07	8.9079E-08	6.2839E-08	2.2136E-06
-2.6701E-07	1.2304E-07	2.4405E-06	3.3216E-06
-2.4140E-07	1.6613E-07	2.6016E-06	1.4285E-06
-1.5106E-07	2.2993E-07	2.2418E-06	1.8064E-06
-1.2953E-07	2.1646E-07	3.0006E-06	1.1262E-06
-1.0560E-07	2.0499E-07	2.0600E-06	-5.4708E-07
-1.5943E-07	1.7459E-07	-5.0225E-07	8.1547E-07
-1.1532E-07	1.7537E-07	1.5682E-06	2.9476E-06
-8.3374E-08	2.1198E-07	2.3121E-06	1.0168E-06
-6.1766E-08	2.0550E-07	1.6699E-06	4.9003E-07
1.7684E-08	1.1218E-07	-5.5399E-07	2.0968E-07
-2.2534E-08	1.3035E-07	-2.8736E-07	3.7529E-06
7.0016E-08	1.0511E-07	1.9354E-06	2.8209E-06
-2.1270E-08	1.9675E-08	2.2275E-06	3.1928E-06
-4.6197E-08	-6.9572E-08	3.0305E-06	4.2727E-07
-8.9148E-08	-4.1090E-08	-5.2162E-07	1.9943E-06
-1.6081E-07	4.0881E-08	2.9546E-06	3.3877E-06
-1.8515E-07	6.2338E-08	1.6319E-06	1.1485E-06
-1.9749E-07	1.4608E-07	2.1788E-06	2.7816E-06
-9.1485E-08	1.7148E-07	2.0817E-06	1.4563E-06
-4.6875E-08	8.1886E-08	2.5920E-06	2.4169E-06
-1.3274E-08	1.0670E-07	2.3861E-06	2.9733E-07
5.5681E-08	1.1524E-07	8.5718E-07	1.5768E-06
1.7579E-08	3.4175E-08	1.0546E-06	1.8366E-06
8.3602E-09	5.6175E-08	1.7041E-06	3.7515E-06
-2.3229E-08	-5.9487E-10	4.1631E-06	1.4843E-06
-4.0714E-08	2.4839E-08	1.3607E-06	3.9136E-07
-3.5432E-08	3.3924E-08	1.5479E-06	2.0242E-06
-5.7858E-08	1.7066E-08	1.9743E-06	1.7786E-06
-3.6739E-08	3.0870E-08	1.9835E-06	1.4298E-06
-7.5021E-09	8.0799E-08	1.2681E-06	1.6420E-06
6.2941E-08	6.3797E-08	1.5889E-06	2.4118E-06
5.9447E-08	4.0038E-08	2.4569E-06	2.4657E-06
8.2623E-08	3.6572E-08	2.5452E-06	1.3088E-06
8.1661E-08	-3.7589E-08	1.6649E-06	1.8747E-06
7.1588E-08	-8.4379E-08	2.4488E-06	1.9077E-06
7.7764E-08	-8.2902E-08	2.4497E-06	2.0408E-06
2.7607E-08	-1.0137E-07	3.5197E-06	7.7109E-07
-1.1899E-08	-1.1077E-07	1.3857E-06	-2.1582E-07
-2.3291E-08	-7.1572E-08	6.6566E-07	1.0754E-06
-7.7136E-09	-4.0322E-08	8.2859E-07	2.3310E-06
-4.9584E-08	-4.0869E-08	2.4584E-06	1.7049E-06
-3.3343E-08	-2.0629E-08	6.9558E-07	1.1063E-06
-1.9213E-08	2.3741E-09	1.4235E-06	2.4177E-06
5.7298E-08	-3.9137E-08	9.2760E-07	2.1209E-06
8.9259E-08	-5.7767E-08	2.4093E-06	3.3386E-06
1.0539E-07	-4.5489E-08	2.4815E-06	1.1720E-06
1.1002E-07	-1.0120E-07	1.5600E-06	2.2481E-06
8.4933E-08	-1.5212E-07	2.3897E-06	1.6819E-06
5.2149E-08	-2.2426E-07	1.5174E-06	1.6557E-06
1.2007E-08	-2.4153E-07	1.6593E-06	2.0585E-06
2.9009E-08	-2.1659E-07	1.5790E-06	2.2853E-06
-6.0903E-08	-2.5623E-07	2.1840E-06	2.7903E-06
-1.2382E-08	-2.3187E-07	2.8552E-06	1.9591E-06
3.8186E-09	-2.3763E-07	2.3489E-06	1.7713E-06
-9.7383E-09	-2.5829E-07	2.7367E-06	9.7350E-07
3.0181E-08	-2.5541E-07	4.5992E-07	9.4054E-07
-9.5118E-08	-3.0618E-07	1.3064E-06	3.3756E-06
-3.4518E-08	-3.2383E-07	2.6025E-06	2.5904E-06
-9.3700E-08	-3.1454E-07	2.8124E-06	2.1301E-06
-1.2096E-07	-2.8993E-07	2.1569E-06	1.6810E-06
-1.3505E-07	-3.2851E-07	2.8471E-06	2.6944E-06
-1.6461E-07	-2.7903E-07	3.9335E-06	8.7938E-07
-1.6946E-07	-2.5589E-07	2.0312E-06	-6.2189E-07
-1.9060E-07	-1.4468E-07	-3.8457E-08	9.3818E-07
-2.2000E-07	-2.0398E-07	1.1493E-06	2.4656E-06
-1.8653E-07	-1.9696E-07	1.1932E-06	2.3730E-06
-2.0474E-07	-1.9125E-07	2.7062E-06	2.6998E-06
-2.3921E-07	-2.0392E-07	1.6251E-06	8.4519E-07
-1.7398E-07	-1.9454E-07	1.2954E-06	2.9544E-06
-1.4899E-07	-1.8858E-07	2.4275E-06	1.8116E-06
-2.0386E-07	-1.6810E-07	1.3952E-06	2.2092E-06
-1.9471E-07	-2.2590E-07	2.0296E-06	2.6250E-06
-2.0712E-07	-1.7253E-07	2.5668E-06	2.2365E-06
-2.5213E-07	-1.9801E-07	1.4186E-06	1.9213E-06
-1.9897E-07	-1.9496E-07	2.7610E-06	3.9145E-06
-2.3273E-07	-1.6275E-07	4.0837E-06	1.2618E-06
-1.9578E-07	-2.1209E-07	2.7141E-06	1.0469E-06
-2.4535E-07	-1.9430E-07	1.8255E-06	-1.2921E-07
-2.0854E-07	-2.1085E-07	1.3113E-07	2.5243E-06
-2.6695E-07	-1.4475E-07	2.8355E-06	2.5092E-06
