jMRUI Data Textfile

Filename: Export_to_jmrui.txt

PointsInDataset: 2048
DatasetsInFile: 1
SamplingInterval: 0.250000
ZeroOrderPhase: 0E0
BeginTime: 0E0
TransmitterFrequency: 1.2326E8
MagneticField: 2.8936E0
TypeOfNucleus:  
NameOfPatient:  
DateOfExperiment:  
Spectrometer:  
AdditionalInfo: 
SignalNames:  


Signal and FFT
sig(real)	sig(imag)	fft(real)	fft(imag)
Signal 1 out of 1 in file
4.2474E-06	-2.9595E-07	-1.8724E-06	1.2471E-06
4.3194E-06	-1.4824E-06	3.9839E-07	5.0586E-07
2.3358E-06	-2.6057E-06	-2.0865E-07	-2.9934E-07
9.5733E-07	-2.7183E-06	-8.5306E-07	-2.1973E-07
-8.5733E-07	-2.1728E-06	-7.9476E-07	1.3134E-06
-1.5749E-06	-1.0829E-06	7.8660E-07	2.4265E-07
-1.9037E-06	3.3715E-08	-1.3101E-06	2.4891E-07
-1.0901E-06	7.7464E-07	3.2693E-07	1.8903E-06
-4.0942E-07	8.5243E-07	2.3499E-07	4.3349E-07
4.3787E-07	5.8593E-07	2.4430E-07	1.7442E-06
5.8979E-07	8.7300E-08	1.3823E-06	1.0717E-06
5.5491E-07	-3.2534E-07	1.3436E-06	5.2035E-07
3.6172E-08	-5.4652E-07	1.0313E-06	2.9245E-07
-3.2747E-07	-3.8439E-07	1.7874E-06	2.8469E-08
-7.1163E-07	-1.2529E-07	3.8308E-07	-1.5354E-06
-7.4727E-07	2.5945E-07	-5.9103E-07	6.3083E-08
-5.8435E-07	4.9097E-07	-6.3284E-07	2.6250E-07
-3.5569E-07	5.8438E-07	2.3594E-07	1.9312E-06
-3.1114E-07	5.0762E-07	1.2800E-06	-2.5709E-07
-2.8216E-07	3.9799E-07	-9.2667E-07	8.7601E-07
-4.7578E-07	3.4610E-07	1.5246E-06	1.8386E-06
-5.9321E-07	5.5185E-07	1.6591E-06	-5.3760E-07
-6.6519E-07	7.1235E-07	-5.3378E-07	-7.0183E-07
-4.1884E-07	9.4029E-07	-5.9990E-07	1.4108E-06
-2.6922E-07	9.9257E-07	6.0485E-07	1.2065E-06
9.1328E-08	8.8434E-07	9.4097E-07	1.2433E-06
2.4983E-07	7.4622E-07	8.5144E-07	-7.6816E-08
3.2772E-07	5.3062E-07	-1.8380E-07	1.3553E-06
1.8022E-07	4.2297E-07	1.6119E-06	6.9864E-07
2.6892E-08	4.1533E-07	-3.5730E-08	3.0126E-07
-1.6911E-07	5.1124E-07	8.9427E-07	9.1141E-07
-2.4450E-07	7.6010E-07	-3.9728E-07	1.9137E-07
-1.9050E-07	1.0653E-06	-1.1289E-07	2.6933E-06
5.1092E-08	1.1011E-06	2.7922E-06	1.5484E-06
3.5266E-07	1.0999E-06	5.5643E-07	-1.0941E-06
5.4316E-07	8.9737E-07	-6.0516E-07	2.4533E-06
7.0198E-07	7.4986E-07	3.0634E-06	1.2334E-06
7.3467E-07	5.2674E-07	4.9015E-07	-7.5697E-07
6.4222E-07	3.8785E-07	3.4983E-07	9.6811E-07
6.4540E-07	2.7359E-07	3.4894E-07	6.6210E-07
5.6414E-07	2.2889E-07	3.5087E-07	1.4460E-06
4.7229E-07	1.8880E-07	1.0670E-06	1.6910E-06
4.9062E-07	1.1582E-07	1.8601E-06	8.5396E-07
4.1338E-07	3.6653E-08	7.0967E-07	1.2039E-07
3.9230E-07	-8.2518E-09	4.3241E-07	1.3479E-06
3.7993E-07	-8.9764E-08	2.0028E-06	1.3516E-06
2.5839E-07	-6.9153E-08	1.5672E-06	-1.2384E-06
1.7779E-07	-5.5224E-08	-1.6495E-06	-2.0068E-08
1.3975E-07	-5.6659E-09	-5.1146E-07	2.3755E-06
1.9655E-07	7.4147E-08	6.7174E-07	3.0328E-06
1.8506E-07	5.5941E-08	3.3084E-06	1.6377E-06
1.9787E-07	5.7477E-08	6.4269E-07	-9.1650E-07
1.8314E-07	-5.5414E-08	5.3658E-08	1.9310E-06
5.5419E-08	-7.4355E-09	1.2480E-06	9.2614E-07
-4.0850E-08	-2.7179E-08	2.2719E-07	1.6428E-06
-8.9802E-08	8.3754E-09	1.6007E-06	1.9908E-06
-1.0040E-07	1.0558E-07	1.7065E-06	9.9099E-07
2.8301E-08	1.6252E-07	1.1660E-06	6.0629E-07
1.1874E-07	1.7235E-07	2.8947E-07	9.9575E-07
1.8336E-07	9.5168E-08	8.4719E-07	2.3372E-06
2.5955E-07	-4.8845E-08	2.1670E-06	1.3477E-06
1.6112E-07	-1.5661E-07	8.7638E-07	7.9261E-07
7.7568E-08	-2.4095E-07	1.1103E-06	1.7977E-06
-3.4064E-08	-2.3668E-07	1.5346E-06	1.7383E-06
-1.5714E-07	-1.1762E-07	2.4006E-06	1.4011E-06
-2.7736E-07	-4.0739E-08	1.5867E-06	4.1318E-09
-3.4641E-07	7.9590E-08	4.2144E-07	1.0366E-06
-2.1645E-07	2.0776E-07	9.0589E-07	2.0069E-06
-2.0638E-07	2.6290E-07	2.3224E-06	2.4061E-06
-1.2760E-07	2.0277E-07	3.3221E-06	2.0551E-07
-4.5405E-08	1.3884E-07	4.0520E-07	-9.7345E-07
-3.6758E-10	8.1443E-08	-5.8511E-07	2.6228E-06
-3.0517E-08	7.5879E-09	3.5132E-06	2.9934E-06
1.7553E-09	-1.5933E-09	2.9706E-06	-7.5535E-07
-2.0581E-08	1.8661E-08	8.6383E-07	4.2104E-07
-3.5017E-09	2.8813E-08	1.7758E-06	2.0545E-07
-3.7422E-08	1.7643E-08	-5.3334E-08	5.2789E-07
-2.1349E-08	-4.5377E-08	1.7293E-06	2.2411E-06
-6.5245E-08	-3.7749E-08	1.9621E-06	-1.1890E-08
-1.5908E-07	-7.3055E-08	8.7259E-07	9.5163E-07
-2.3128E-07	-2.4244E-08	1.3132E-06	7.7759E-08
-1.9121E-07	3.3513E-08	-6.1188E-07	1.5665E-06
-1.4265E-07	1.5239E-07	2.5279E-06	2.8149E-06
-8.5820E-08	1.3878E-07	2.1656E-06	-5.6768E-07
3.2703E-08	6.2929E-08	-3.6891E-07	1.1091E-06
1.0439E-07	-1.9091E-08	1.7847E-06	2.4650E-06
1.0453E-07	-2.1845E-07	2.0015E-06	7.4288E-07
5.5044E-08	-3.5699E-07	1.4794E-06	1.2403E-06
-8.9515E-08	-4.1529E-07	1.8681E-06	5.9470E-07
-3.0368E-07	-3.4409E-07	1.1366E-06	6.2474E-07
-3.7271E-07	-2.1831E-07	8.0143E-07	5.8977E-07
-4.3037E-07	-9.9530E-08	6.1232E-07	1.9114E-06
-3.2294E-07	-2.8899E-08	2.0332E-06	1.2232E-06
-2.6105E-07	6.3890E-08	9.1374E-07	9.7090E-07
-1.1720E-07	4.6238E-08	1.4655E-06	1.1045E-06
-1.9896E-08	-3.8683E-08	4.2336E-07	1.1179E-06
1.2098E-08	-2.1203E-07	1.0760E-06	2.1606E-06
-1.0017E-07	-2.0579E-07	1.5975E-06	1.9388E-06
-2.3157E-07	-3.0327E-07	1.7004E-06	1.4139E-06
-3.2392E-07	-2.7330E-07	1.3733E-06	2.2684E-06
-4.3192E-07	-2.9417E-07	3.0136E-06	1.3820E-06
-4.5358E-07	-2.0193E-07	1.3920E-06	8.6004E-07
-4.0881E-07	-1.8362E-07	2.4050E-06	9.8161E-07
-4.0485E-07	-6.1457E-08	2.3138E-07	7.4579E-07
-3.6482E-07	-2.6268E-08	2.5003E-06	2.9991E-06
-3.6425E-07	3.0376E-08	2.6226E-06	-3.5999E-07
-3.6169E-07	7.8631E-08	4.0264E-07	1.0054E-06
-3.7007E-07	1.4029E-07	1.5106E-06	2.0573E-06
-3.7271E-07	5.1835E-08	2.3707E-06	1.1703E-06
-3.2371E-07	9.8815E-08	7.8572E-07	1.0045E-06
-3.1294E-07	-8.2343E-09	2.1945E-06	2.6938E-06
-2.7789E-07	1.6780E-08	2.7522E-06	8.9208E-07
-2.6959E-07	-8.3448E-08	2.6157E-06	9.1912E-07
-2.2778E-07	1.0174E-08	1.6892E-06	-4.7171E-07
-3.5219E-07	-2.7880E-08	7.0701E-07	1.1707E-06
-3.1997E-07	4.7045E-08	1.3107E-06	1.1606E-06
-3.6434E-07	6.0860E-08	1.6279E-06	2.0118E-06
-3.8359E-07	1.3728E-07	2.5175E-06	6.6894E-07
-3.0814E-07	1.9603E-07	1.0483E-06	6.0705E-07
-2.1843E-07	2.1674E-07	1.2444E-06	1.4379E-06
-2.2810E-07	1.8962E-07	1.6280E-06	1.3050E-06
-1.2199E-07	1.1100E-07	9.8886E-07	1.4395E-06
-1.3557E-07	8.2188E-08	2.2408E-06	2.5350E-06
-1.2810E-07	4.8505E-08	2.6410E-06	5.1908E-07
-1.7874E-07	1.3087E-08	1.4329E-06	1.4249E-06
-2.0469E-07	3.6903E-08	2.8999E-06	8.7907E-07
-1.9544E-07	6.1398E-08	1.3173E-06	-3.7704E-07
-1.7037E-07	1.5254E-07	8.5596E-08	1.0562E-06
-1.7822E-07	1.8171E-07	9.8137E-07	2.6398E-06
-1.1441E-07	2.7133E-07	2.7434E-06	2.0353E-06
-8.3617E-08	2.2573E-07	2.0970E-06	4.5040E-07
-9.2728E-08	1.5097E-07	9.3254E-07	1.2664E-06
-1.0257E-07	1.4600E-07	1.3616E-06	1.7852E-06
-2.6807E-08	1.5575E-07	1.4824E-06	2.8321E-06
-1.6251E-08	9.4506E-08	4.0168E-06	2.1428E-06
2.5026E-08	1.7310E-07	2.4093E-06	5.4069E-08
1.7508E-08	9.7625E-08	2.5112E-06	1.1789E-06
4.4188E-08	8.7199E-08	1.6850E-06	-2.4837E-07
2.8414E-08	1.1922E-08	9.8622E-07	1.6549E-06
-5.9558E-08	-1.2570E-08	1.8324E-06	1.6451E-06
-9.5296E-08	-3.2814E-08	2.8185E-06	2.0292E-06
-6.9796E-08	1.5665E-08	2.6513E-06	5.9829E-08
-1.3231E-07	3.1494E-09	1.7883E-06	1.2759E-06
-1.5808E-07	7.5431E-08	2.4830E-06	3.0681E-07
-1.1696E-07	7.9997E-08	1.4550E-06	7.9812E-07
-7.9898E-08	8.2964E-08	1.6496E-06	8.5227E-07
-5.6637E-08	7.1311E-08	2.2616E-06	1.7756E-06
-1.8414E-09	5.5069E-08	2.7195E-06	-6.1615E-07
1.1451E-08	4.5597E-08	1.1503E-07	8.0069E-07
-3.6534E-08	2.2342E-08	2.2205E-06	1.5185E-06
-6.3759E-08	-1.8571E-08	1.5048E-06	6.7160E-07
-2.3855E-08	4.2278E-08	1.9107E-06	8.4333E-07
-4.6687E-08	2.3339E-09	8.4596E-07	3.6881E-07
-1.8114E-08	5.2755E-08	5.8107E-07	2.0554E-06
-4.0502E-08	6.4846E-08	2.5970E-06	2.2676E-06
-9.4355E-09	5.4947E-08	1.9727E-06	5.5088E-08
7.3359E-08	8.3641E-08	4.2504E-07	2.2299E-06
8.7554E-08	3.4351E-08	3.1729E-06	2.5602E-06
1.0384E-08	-3.0674E-08	3.3025E-06	7.8253E-07
9.0736E-08	4.0886E-09	2.4302E-06	-3.6855E-07
8.5647E-08	-8.0561E-08	8.1507E-07	7.7370E-07
5.0219E-08	-6.0920E-08	2.4190E-06	1.4423E-06
5.7324E-08	-4.8859E-08	2.1714E-06	1.8755E-07
1.4751E-09	-6.2619E-08	1.4182E-06	1.5634E-07
-1.3257E-08	-8.8872E-08	8.8979E-07	1.0543E-06
-2.0132E-09	-6.4212E-08	2.0379E-06	1.1288E-06
3.5254E-08	-5.1335E-08	1.3649E-06	3.2451E-07
2.7014E-08	3.0157E-08	1.1032E-06	8.2718E-07
-3.8844E-08	-1.7666E-08	6.6190E-07	9.4304E-07
-2.2875E-09	-1.4287E-08	8.7655E-07	2.1457E-06
6.2106E-08	5.6108E-09	2.2445E-06	1.8462E-06
1.0694E-07	-1.1151E-07	1.7968E-06	8.2210E-07
6.9379E-08	-9.1624E-08	1.4037E-06	1.2929E-06
1.0305E-07	-1.3745E-07	1.5226E-06	1.3311E-06
5.0983E-08	-1.7818E-07	1.8453E-06	1.3313E-06
7.1047E-08	-2.4084E-07	1.0902E-06	8.6140E-07
1.2606E-09	-2.3651E-07	1.4767E-06	2.2235E-06
-2.1507E-08	-1.9686E-07	1.7784E-06	1.0286E-06
-3.8415E-08	-2.5195E-07	1.7260E-06	2.4864E-06
-4.6921E-08	-2.2536E-07	2.8602E-06	5.4252E-08
3.7462E-09	-1.8598E-07	-3.9343E-07	1.6741E-06
-4.1507E-08	-2.3357E-07	3.3836E-06	2.9570E-06
3.4454E-09	-2.5157E-07	2.3454E-06	-3.4248E-07
-3.5532E-08	-2.3296E-07	5.2933E-07	1.1456E-06
-8.4668E-08	-2.8508E-07	1.6113E-06	2.5808E-06
-1.3345E-07	-3.0934E-07	3.0653E-06	1.0228E-06
-1.7966E-07	-2.5344E-07	9.6510E-07	6.4808E-07
-1.8280E-07	-2.4110E-07	1.8735E-06	1.5556E-06
-1.8061E-07	-1.8388E-07	3.9221E-07	1.0508E-06
-1.8622E-07	-2.1640E-07	1.5842E-06	3.8626E-06
-1.6620E-07	-1.8251E-07	3.8232E-06	1.8340E-06
-1.9259E-07	-1.6584E-07	2.6386E-06	9.3015E-07
-1.7607E-07	-1.5759E-07	2.6512E-06	7.4808E-07
-1.4616E-07	-1.5683E-07	1.8230E-06	4.7620E-07
-1.6298E-07	-1.5037E-07	1.6392E-06	9.1330E-07
-1.9254E-07	-1.7761E-07	9.8033E-07	1.3287E-06
-1.7153E-07	-1.9080E-07	2.4802E-06	2.8550E-06
-1.7982E-07	-2.2923E-07	3.6343E-06	1.5471E-07
-1.3791E-07	-1.2901E-07	1.1570E-06	2.2045E-07
-1.7808E-07	-1.6390E-07	1.5925E-06	1.0931E-06
-1.9002E-07	-1.8717E-07	1.4315E-06	1.6375E-06
-2.3598E-07	-1.7704E-07	2.7144E-06	1.4410E-06
-2.0021E-07	-1.6452E-07	2.4395E-06	5.8865E-07
-2.3404E-07	-1.3380E-07	1.7192E-06	-3.5010E-07
-1.7240E-07	-1.3053E-07	1.4418E-07	1.6602E-06
-2.2230E-07	-1.3610E-07	3.1618E-06	1.6601E-06
