jMRUI Data Textfile

Filename: Export_to_jmrui.txt

PointsInDataset: 2048
DatasetsInFile: 1
SamplingInterval: 0.250000
ZeroOrderPhase: 0E0
BeginTime: 0E0
TransmitterFrequency: 1.2326E8
MagneticField: 2.8936E0
TypeOfNucleus:  
NameOfPatient:  
DateOfExperiment:  
Spectrometer:  
AdditionalInfo: 
SignalNames:  


Signal and FFT
sig(real)	sig(imag)	fft(real)	fft(imag)
Signal 1 out of 1 in file
3.3887E-06	9.4984E-09	-1.0224E-06	-1.2271E-06
3.1113E-06	-8.2671E-07	-1.7012E-06	2.4445E-07
1.7269E-06	-1.6816E-06	-2.4201E-07	6.8139E-07
8.5697E-07	-1.8173E-06	-4.5927E-07	-1.1293E-07
-4.8952E-07	-1.5650E-06	-8.6357E-07	7.2094E-07
-9.6850E-07	-8.2725E-07	2.0204E-07	9.4146E-07
-1.2356E-06	-1.5645E-07	-1.9664E-07	-6.3935E-08
-7.2395E-07	3.7702E-07	-1.0196E-06	1.4334E-06
-2.5938E-07	5.1011E-07	1.2824E-06	1.7504E-06
3.0441E-07	2.6827E-07	5.3848E-07	-1.6670E-07
4.3072E-07	-7.5832E-08	4.6988E-07	1.6365E-06
3.3430E-07	-3.4550E-07	2.1669E-06	-7.2613E-07
-4.1517E-08	-4.9500E-07	-1.3865E-06	-9.0925E-07
-3.0521E-07	-3.3423E-07	-9.4161E-08	1.4659E-06
-6.2348E-07	-5.0421E-08	-1.0116E-07	2.0791E-07
-5.2594E-07	2.1649E-07	-3.5197E-07	1.4258E-06
-4.4655E-07	4.1559E-07	2.6007E-07	1.4399E-06
-2.2115E-07	4.3166E-07	1.1434E-06	1.5714E-06
-1.3407E-07	3.5044E-07	8.8825E-07	1.1622E-07
-1.3031E-07	2.1603E-07	-1.0669E-07	9.9999E-07
-3.4646E-07	1.8608E-07	4.5988E-07	1.5040E-06
-4.6768E-07	2.6544E-07	1.2476E-06	1.6593E-06
-5.7220E-07	4.0201E-07	1.4173E-06	6.1534E-07
-4.6927E-07	6.3571E-07	1.0550E-06	8.5868E-07
-3.5076E-07	7.0300E-07	1.1380E-06	1.9998E-07
-1.2875E-08	7.5861E-07	2.4637E-07	8.0884E-07
1.4891E-07	6.0701E-07	1.2656E-06	1.0863E-06
2.2303E-07	4.9834E-07	7.5480E-07	1.6885E-07
1.5122E-07	3.9498E-07	1.7022E-07	1.2044E-06
-3.3043E-09	3.0946E-07	1.0686E-06	1.2911E-06
-1.8533E-07	3.6909E-07	6.8684E-07	1.6101E-06
-2.9422E-07	6.2122E-07	2.7085E-06	1.8569E-06
-2.2677E-07	8.0364E-07	2.2818E-06	-8.2152E-07
-3.3378E-09	8.7361E-07	4.2278E-07	-1.6597E-07
1.7717E-07	8.5921E-07	5.9643E-07	7.8223E-07
4.2182E-07	7.8108E-07	1.4836E-06	6.8970E-07
4.8785E-07	6.2614E-07	5.9943E-07	-6.1842E-09
5.4157E-07	4.8188E-07	1.1724E-06	1.1907E-06
5.1363E-07	3.5670E-07	1.2192E-06	-8.2727E-07
5.1790E-07	2.6057E-07	-1.2832E-06	5.0734E-07
3.9859E-07	2.6421E-07	1.6304E-07	3.0036E-06
3.9854E-07	2.0005E-07	2.7923E-06	2.2029E-06
3.9734E-07	1.2268E-07	2.3015E-06	1.6452E-07
4.0326E-07	6.6321E-08	2.1578E-06	2.4157E-07
3.4330E-07	-1.4306E-08	1.1335E-06	-1.2687E-06
2.6204E-07	-1.1118E-08	-3.3712E-07	3.9783E-07
1.8861E-07	-9.2419E-08	6.0680E-07	1.3525E-06
1.7918E-07	-1.3951E-08	2.2454E-06	8.3848E-07
8.2504E-08	3.1759E-09	1.7412E-07	-1.4369E-06
1.7086E-07	5.2797E-08	-4.2412E-07	2.3337E-06
1.8045E-07	6.8284E-09	2.0452E-06	-2.8488E-08
2.1509E-07	9.2827E-09	-1.2080E-06	1.1825E-06
2.2038E-07	-9.1352E-08	2.2738E-06	2.5503E-06
8.8398E-08	-1.8987E-08	1.6540E-06	-2.1370E-07
1.5351E-08	-5.5767E-08	5.1973E-07	7.0366E-07
-6.0996E-08	-1.6895E-08	9.9353E-07	1.1223E-06
-6.7050E-08	2.1028E-09	1.2087E-06	8.2758E-07
-6.7467E-09	8.3510E-08	1.2178E-06	6.8107E-07
7.1928E-08	7.1044E-08	4.6318E-07	3.1484E-07
1.3298E-07	8.6115E-08	6.6719E-07	1.7475E-06
1.3342E-07	3.9321E-08	1.2362E-06	3.5746E-07
1.8262E-07	-8.9472E-08	-3.1088E-07	1.7168E-06
1.0966E-07	-1.0912E-07	1.4842E-06	2.3250E-06
-9.2334E-09	-1.7833E-07	1.9287E-06	2.1421E-06
-1.4622E-07	-1.6410E-07	2.8270E-06	6.0455E-07
-1.8071E-07	-8.1264E-08	8.5052E-07	7.3354E-07
-1.7663E-07	4.6247E-08	2.3328E-06	1.4933E-06
-2.1798E-07	1.5837E-07	1.7392E-06	2.3568E-07
-2.0419E-07	1.2597E-07	1.5065E-06	1.1422E-06
-1.1059E-07	1.3705E-07	2.6261E-06	8.4475E-07
-2.7583E-08	1.5688E-07	1.7789E-06	-9.4915E-07
-7.3007E-09	1.6701E-07	2.0869E-07	9.3916E-07
-2.3666E-08	1.3029E-07	2.2865E-06	8.9541E-07
-1.7003E-08	6.9123E-08	1.3799E-06	2.4663E-07
6.6119E-09	4.8838E-08	1.8305E-06	-2.2430E-07
3.6770E-08	2.1323E-08	-1.9580E-07	5.0138E-07
-1.7596E-08	-5.5325E-09	2.6862E-06	1.5475E-06
-3.4249E-09	-7.8983E-08	9.7271E-07	-1.8937E-06
-4.7491E-08	-1.0724E-07	-1.4645E-06	1.4786E-06
-1.1377E-07	-8.8403E-08	1.6264E-06	3.3897E-06
-1.7477E-07	-6.0816E-08	3.9938E-06	1.1154E-06
-2.1762E-07	2.3068E-08	2.4517E-06	-1.3357E-06
-1.6573E-07	1.1356E-07	7.0356E-07	-1.1023E-06
-5.9273E-08	1.6897E-07	-6.1761E-07	3.2977E-07
6.6824E-08	8.2725E-08	1.3298E-06	1.8613E-06
1.3299E-07	-1.5329E-08	1.2812E-06	-2.2490E-07
1.5595E-07	-1.8719E-07	3.4901E-07	1.5938E-06
2.9084E-08	-2.9278E-07	2.4656E-06	9.1957E-07
-5.4708E-08	-3.4992E-07	1.2431E-06	-5.4939E-09
-1.7866E-07	-3.1769E-07	1.8875E-06	2.5880E-07
-2.4181E-07	-2.7459E-07	5.8570E-07	-1.3071E-06
-3.0951E-07	-1.2318E-07	-8.2506E-07	8.6084E-07
-2.3398E-07	5.9366E-09	8.8423E-07	1.3395E-06
-1.4247E-07	3.1912E-08	5.2609E-07	8.4020E-07
-1.0525E-07	-7.4429E-08	7.8365E-07	1.2941E-06
-5.8235E-08	-4.3542E-08	8.7238E-07	1.3235E-06
-7.3468E-08	-2.6041E-07	1.6975E-06	1.2720E-06
-1.0821E-07	-2.8053E-07	1.0331E-06	7.6643E-08
-2.1321E-07	-2.2293E-07	3.8312E-07	1.5472E-06
-3.0727E-07	-1.8470E-07	2.0587E-06	9.1672E-07
-3.9034E-07	-1.6558E-07	2.8863E-07	1.0162E-07
-3.2720E-07	-1.4126E-07	9.1841E-07	1.6347E-06
-3.6959E-07	-8.2256E-08	5.0348E-07	3.0726E-07
-3.4033E-07	-9.0832E-08	5.7753E-08	2.9206E-06
-3.4791E-07	-3.3703E-08	3.2498E-06	1.7758E-06
-3.2290E-07	-5.2630E-08	1.4146E-06	-3.6145E-07
-3.2986E-07	1.0153E-08	3.8347E-07	9.7458E-07
-3.6289E-07	5.7833E-08	1.0488E-06	1.6090E-06
-3.5986E-07	5.5200E-08	1.3354E-06	1.4444E-06
-3.5382E-07	5.0937E-08	2.2326E-06	1.5906E-06
-2.8280E-07	-1.3098E-08	1.8979E-06	-7.8604E-07
-2.1372E-07	9.0474E-08	-7.5173E-07	9.6877E-07
-2.2927E-07	5.2954E-08	1.5161E-06	1.9021E-06
-2.3280E-07	6.4407E-08	3.5609E-07	1.2591E-06
-2.7539E-07	2.4423E-08	2.0465E-06	2.8603E-06
-2.3503E-07	1.2973E-07	2.5411E-06	3.7411E-07
-2.7949E-07	9.1713E-08	9.0296E-07	9.0933E-07
-2.3257E-07	1.6049E-07	1.6822E-06	1.8401E-06
-2.0093E-07	1.8390E-07	3.0720E-06	7.7640E-07
-1.9120E-07	1.3573E-07	8.4735E-07	-1.3218E-06
-2.0420E-07	9.4444E-08	-6.9681E-07	2.5217E-06
-7.8834E-08	1.5324E-07	3.8386E-06	1.9626E-06
-1.1944E-07	6.5608E-08	1.0166E-06	-1.3339E-06
-1.3161E-07	3.2676E-08	2.3240E-07	2.1410E-06
-1.4895E-07	3.1495E-08	2.6017E-06	1.1679E-06
-1.3299E-07	5.8501E-08	1.7999E-06	-1.2597E-07
-1.6853E-07	1.3803E-07	2.2819E-07	-2.0018E-07
-1.7495E-07	1.0469E-07	4.3364E-07	1.8278E-06
-1.4509E-07	1.7379E-07	1.2183E-06	4.9851E-07
-1.0822E-07	1.4877E-07	-2.1327E-07	2.0079E-06
-1.1284E-07	1.5257E-07	2.1189E-06	2.2564E-06
-8.1280E-08	1.6754E-07	1.6265E-06	1.2085E-06
-7.4184E-08	1.5337E-07	2.0042E-06	1.2380E-06
-1.5084E-08	1.6308E-07	1.5583E-06	5.3123E-07
1.5513E-08	1.3459E-07	7.0163E-07	9.0861E-07
4.9692E-08	1.1933E-07	1.6283E-06	2.1754E-06
2.5699E-08	5.9620E-08	2.3047E-06	-1.9135E-07
2.8009E-08	9.7176E-08	-5.7555E-07	8.6728E-07
-1.9181E-09	3.0841E-08	1.0628E-06	2.4514E-06
-1.8225E-08	-5.3977E-09	1.5343E-06	2.6365E-06
-4.3905E-08	-1.3412E-08	3.6704E-06	1.3332E-06
-1.2184E-07	-2.2597E-09	1.0994E-06	-4.6813E-07
-8.7080E-08	5.6175E-08	6.5812E-07	1.4718E-06
-4.6639E-08	1.0729E-07	7.4017E-07	2.1571E-06
-5.0771E-08	1.3785E-07	2.7809E-06	2.7497E-06
-2.5265E-08	1.1405E-07	2.6829E-06	9.2477E-07
-2.1219E-08	3.5212E-08	2.9806E-06	1.0892E-06
-2.1911E-08	8.5810E-08	1.8727E-06	-7.2521E-07
-3.3594E-08	1.5657E-08	6.3936E-07	1.6214E-06
3.7312E-09	1.6081E-08	3.1875E-06	1.3698E-06
-1.4090E-08	3.8384E-08	2.0362E-06	-7.0421E-07
-9.4571E-10	7.2937E-08	8.3330E-07	6.9779E-07
2.1743E-08	3.4386E-08	2.1252E-06	4.5796E-07
1.1896E-08	4.2879E-08	4.5118E-07	-1.9693E-07
3.7499E-08	7.3554E-08	7.5988E-07	1.8579E-06
-2.5925E-08	2.9074E-08	2.3497E-06	9.1875E-07
3.8918E-08	8.6297E-08	1.1247E-06	-5.9138E-07
1.2481E-07	4.1779E-08	-8.3832E-07	1.0639E-06
4.5025E-08	-1.7668E-08	9.6491E-07	2.8584E-06
8.6442E-08	-1.1718E-08	1.6703E-06	2.2836E-06
8.6829E-08	-2.8510E-08	3.4437E-06	2.3096E-06
5.1610E-08	-6.4781E-08	2.9583E-06	-9.9913E-07
3.1608E-08	-9.3541E-08	2.3386E-07	4.2570E-07
-2.2499E-09	-6.3898E-08	1.8263E-06	1.3005E-06
-2.7624E-08	-4.8279E-08	1.2957E-06	3.7615E-07
-4.4957E-08	-2.2893E-09	1.2109E-06	1.1976E-06
-1.2957E-08	-5.4191E-08	1.6423E-06	6.4494E-07
-1.9889E-08	1.3104E-08	7.4638E-07	7.3541E-07
-2.9564E-08	-5.9475E-08	1.2067E-06	1.5250E-06
1.8290E-08	-1.4560E-08	1.4701E-06	1.0037E-06
6.6234E-08	-5.1515E-08	1.1899E-06	1.2925E-06
8.2451E-08	-6.7689E-08	1.7671E-06	1.2317E-06
8.3005E-08	-1.3207E-07	1.4288E-06	4.4822E-07
1.0901E-07	-6.9712E-08	2.1134E-07	1.0502E-06
5.0522E-08	-1.8085E-07	1.2210E-06	2.8387E-06
-1.0789E-08	-1.2649E-07	3.1893E-06	1.2502E-06
2.5326E-08	-2.2495E-07	1.1652E-06	-5.5442E-08
-1.6600E-11	-1.8733E-07	1.0658E-06	1.7445E-06
-2.9054E-08	-1.8980E-07	1.9796E-06	1.1722E-06
-1.7297E-08	-1.1990E-07	1.9963E-06	8.7298E-07
-7.7558E-09	-2.3963E-07	1.1829E-06	-2.3271E-07
5.9528E-08	-1.9057E-07	-1.5119E-08	1.5819E-06
-2.1634E-08	-2.2139E-07	1.7353E-06	1.6728E-06
-8.5421E-08	-2.0051E-07	9.2328E-07	1.2690E-06
-8.1280E-08	-2.2983E-07	1.5647E-06	1.8570E-06
-1.2016E-07	-2.1703E-07	1.5973E-06	1.5031E-06
-1.9156E-07	-2.3482E-07	1.7945E-06	1.4471E-06
-2.0497E-07	-1.8951E-07	1.7614E-06	1.7839E-06
-2.0380E-07	-1.9159E-07	3.0794E-06	8.0455E-07
-1.9322E-07	-1.7111E-07	8.7133E-07	-3.0275E-07
-1.7430E-07	-1.0161E-07	1.1563E-06	1.6194E-06
-2.0209E-07	-1.2225E-07	1.1971E-06	5.6562E-07
-1.3871E-07	-6.8289E-08	1.0991E-06	1.9627E-06
-1.4958E-07	-8.8433E-08	1.7621E-06	4.5074E-07
-1.9367E-07	-1.4142E-07	-1.3032E-07	2.0709E-06
-1.6563E-07	-1.7249E-07	3.0819E-06	2.5938E-06
-1.9595E-07	-1.4087E-07	1.8220E-06	7.6432E-10
-2.2390E-07	-1.2314E-07	1.4699E-06	1.7398E-06
-2.2881E-07	-1.1283E-07	2.1051E-06	1.6861E-07
-2.1947E-07	-1.3955E-07	2.2757E-07	8.6844E-07
-2.2079E-07	-7.1689E-08	1.2175E-06	1.8221E-06
-2.0836E-07	-1.1664E-07	1.1251E-06	1.3821E-06
-2.0332E-07	-1.2028E-07	1.1848E-06	2.1608E-06
-2.3141E-07	-1.3684E-07	2.2184E-06	1.7691E-06
-3.0649E-07	-1.4265E-07	1.4242E-06	1.2958E-06
-2.6703E-07	-9.0491E-08	2.2439E-06	2.0113E-06
