jMRUI Data Textfile

Filename: Export_to_jmrui.txt

PointsInDataset: 2048
DatasetsInFile: 1
SamplingInterval: 0.250000
ZeroOrderPhase: 0E0
BeginTime: 0E0
TransmitterFrequency: 1.2326E8
MagneticField: 2.8936E0
TypeOfNucleus:  
NameOfPatient:  
DateOfExperiment:  
Spectrometer:  
AdditionalInfo: 
SignalNames:  


Signal and FFT
sig(real)	sig(imag)	fft(real)	fft(imag)
Signal 1 out of 1 in file
2.9995E-06	2.4639E-08	-8.6433E-07	-5.3158E-07
2.2565E-06	-7.0451E-07	-2.0052E-07	-5.3480E-07
1.2917E-06	-1.3435E-06	-5.4041E-07	-1.7654E-07
6.2927E-07	-1.3994E-06	2.6090E-07	1.1671E-07
-3.4871E-07	-1.1629E-06	-6.4580E-08	-2.6877E-07
-6.4708E-07	-5.8829E-07	3.7435E-07	3.4459E-08
-7.7841E-07	-2.0287E-07	-3.4581E-07	-5.9015E-07
-4.3006E-07	1.4491E-07	-2.8588E-07	7.1320E-07
-1.4113E-07	1.9225E-07	3.0707E-07	1.7507E-08
2.8052E-07	1.1698E-07	-4.1608E-07	1.7109E-07
2.9004E-07	-2.2719E-07	-7.3427E-07	7.9805E-07
2.2276E-07	-3.9368E-07	-6.2402E-08	2.1256E-06
-1.5660E-07	-5.0859E-07	1.7040E-06	1.7673E-06
-3.3624E-07	-2.9564E-07	1.9688E-06	-9.0772E-08
-5.1831E-07	-7.7807E-08	-5.8314E-09	-4.0277E-07
-4.2024E-07	2.0990E-07	1.3459E-07	1.0080E-06
-4.1622E-07	3.6890E-07	1.3249E-07	1.3017E-06
-1.9894E-07	4.3313E-07	1.9657E-06	2.0055E-06
-1.1857E-07	3.3000E-07	1.6603E-06	-5.7750E-07
-1.1525E-07	2.2283E-07	2.0009E-07	9.2339E-07
-2.2188E-07	1.8229E-07	1.3603E-06	1.0899E-06
-2.8781E-07	2.0427E-07	1.7981E-06	8.9592E-07
-3.5826E-07	3.0979E-07	1.3691E-06	-2.5107E-07
-3.6817E-07	4.3132E-07	9.7502E-07	1.1535E-06
-2.2279E-07	4.9325E-07	2.3493E-06	5.7640E-08
-2.4291E-08	5.2989E-07	1.0381E-06	-3.7995E-07
6.0533E-08	4.3344E-07	1.0247E-06	1.3403E-07
1.6628E-07	3.8821E-07	1.5984E-06	1.1034E-07
7.7169E-08	2.7012E-07	6.8480E-07	-1.3359E-06
-1.2529E-09	2.4745E-07	-6.3121E-07	8.6833E-07
-1.6348E-07	3.1346E-07	1.5624E-06	9.0873E-07
-2.5035E-07	5.0783E-07	1.0696E-06	-1.0323E-07
-1.8936E-07	6.0537E-07	5.8424E-07	-4.2385E-07
-3.5967E-08	6.7733E-07	-3.0305E-07	4.1870E-07
6.4883E-08	7.7437E-07	4.7402E-08	7.6940E-07
2.8813E-07	6.5794E-07	-6.9738E-08	2.1349E-06
3.9067E-07	5.9896E-07	2.3021E-06	1.8658E-06
4.4154E-07	4.6802E-07	1.7398E-06	2.9249E-07
4.7533E-07	3.6537E-07	1.4124E-06	4.2538E-07
4.7905E-07	2.8625E-07	1.3376E-06	3.6856E-07
4.0841E-07	2.1270E-07	1.1745E-06	-1.6759E-07
4.4272E-07	1.7664E-07	2.3656E-07	5.2657E-07
3.9964E-07	8.4236E-08	1.1944E-06	8.5413E-07
3.7692E-07	1.2036E-07	7.2611E-07	4.1521E-07
3.1594E-07	3.2833E-08	7.0766E-07	1.1014E-06
3.2347E-07	3.0266E-08	1.7860E-06	1.3098E-06
2.3642E-07	4.2784E-09	1.6287E-06	-9.3084E-07
2.1849E-07	-1.2978E-08	-1.3374E-06	9.4748E-07
1.8824E-07	6.9246E-09	2.1073E-06	2.9105E-06
2.5668E-07	4.8981E-08	2.2563E-06	-6.3445E-09
2.3878E-07	-1.7226E-08	1.4354E-06	5.1686E-07
1.7699E-07	-2.0905E-08	1.3115E-06	-2.1123E-08
2.1525E-07	-6.8708E-08	1.1777E-06	4.9196E-07
1.8479E-07	-7.2867E-08	1.0134E-06	-4.1212E-07
1.0843E-07	-6.0941E-08	-1.9546E-07	5.5153E-07
1.9045E-08	-4.4253E-08	5.8666E-07	1.2215E-06
-1.4130E-08	2.2324E-09	5.7751E-07	1.4958E-06
-1.3511E-08	4.6982E-08	1.9800E-06	1.7406E-06
2.9592E-08	1.0977E-07	1.8423E-06	-3.6358E-07
8.4867E-08	1.0712E-07	-4.2523E-07	5.5603E-07
1.7193E-07	-3.3390E-08	1.1150E-06	2.3638E-06
2.4012E-07	-1.5411E-08	1.8700E-06	9.4966E-07
1.8404E-07	-1.3302E-07	1.4554E-06	1.3541E-06
1.1169E-07	-2.1356E-07	2.3609E-06	4.6932E-07
-3.9952E-08	-1.9143E-07	8.6211E-07	-3.4835E-08
-1.0182E-07	-1.0007E-07	9.4276E-07	8.4872E-07
-1.5506E-07	-7.3408E-08	6.0462E-07	8.6570E-07
-1.9447E-07	1.6348E-08	1.2009E-06	1.8263E-06
-2.3978E-07	6.8387E-08	1.9670E-06	1.1328E-06
-1.5944E-07	1.0049E-07	1.7479E-06	3.4135E-07
-5.3517E-08	8.5296E-08	2.1872E-07	5.8012E-07
-4.3987E-08	1.6113E-07	1.3037E-06	2.4731E-06
4.4266E-08	6.5694E-08	2.2907E-06	1.0392E-06
3.8391E-08	9.6530E-08	1.9478E-06	1.1754E-06
6.2961E-08	-1.5606E-08	1.9407E-06	1.9927E-07
5.7962E-08	4.2959E-09	9.9412E-07	1.1010E-06
4.5153E-08	-1.1747E-07	1.9548E-06	1.2573E-06
1.6078E-08	-1.1248E-07	2.1372E-06	1.0115E-06
-4.1173E-08	-1.4045E-07	2.0313E-06	2.8415E-07
-1.0036E-07	-5.7513E-08	1.7429E-06	7.5468E-07
-1.7347E-07	-4.7621E-08	1.7311E-06	-3.4604E-08
-1.9494E-07	3.4782E-08	1.0625E-06	1.0685E-06
-1.1650E-07	7.9093E-08	2.0201E-06	5.4547E-07
-5.6361E-08	7.0894E-08	1.4678E-06	1.0276E-06
8.2091E-08	-1.0078E-08	2.3464E-06	9.1201E-08
9.3784E-08	-7.7946E-08	1.0129E-06	6.8148E-07
9.3425E-08	-2.2289E-07	2.4635E-06	2.0620E-08
6.9174E-08	-1.5335E-07	-7.1527E-08	2.0937E-07
-8.1544E-08	-2.6078E-07	2.3406E-06	2.0351E-06
-2.1310E-07	-1.4575E-07	2.3883E-06	-3.9835E-07
-2.7542E-07	-1.5151E-07	1.5759E-06	-5.1929E-07
-2.5404E-07	-7.8272E-08	-1.0550E-07	-4.4383E-07
-2.4451E-07	-7.9386E-08	3.9480E-07	1.5657E-06
-1.9611E-07	6.5537E-08	1.0159E-06	1.3318E-06
-1.2479E-07	5.1070E-08	1.9922E-06	1.5858E-06
-8.0301E-08	9.2396E-09	1.6275E-06	4.1807E-07
-1.0783E-07	-2.1869E-08	2.0368E-06	1.1757E-06
-9.9679E-08	-1.4322E-07	1.7098E-06	-6.0499E-07
-1.9436E-07	-2.0390E-07	6.0682E-07	9.2333E-07
-2.6520E-07	-1.9447E-07	1.7377E-06	1.2867E-07
-3.1506E-07	-2.1264E-07	-1.1785E-07	4.2467E-07
-2.5181E-07	-1.2626E-07	8.5714E-07	1.9420E-06
-2.5541E-07	-4.2824E-08	1.6372E-06	1.4067E-06
-2.4186E-07	-4.8771E-08	1.5886E-06	1.0867E-06
-2.3209E-07	-1.3633E-08	1.7724E-06	1.0606E-06
-2.0328E-07	-2.9468E-08	1.3221E-06	9.9425E-08
-2.6010E-07	-4.6270E-08	-1.1983E-07	1.7085E-06
-2.9896E-07	-7.3171E-09	2.3729E-06	2.7836E-06
-3.4913E-07	-9.7302E-09	2.6866E-06	7.8803E-07
-2.8534E-07	4.1587E-08	2.0710E-06	6.3850E-07
-1.8420E-07	1.5837E-07	1.3072E-06	5.6315E-07
-1.7343E-07	7.5287E-08	1.7605E-06	1.8570E-06
-1.5823E-07	8.2562E-08	2.8804E-06	7.8849E-07
-2.2694E-07	3.4015E-08	2.1342E-06	8.6187E-08
-2.3701E-07	8.9728E-08	1.4771E-06	1.1039E-07
-2.3298E-07	8.1091E-08	1.4856E-06	7.5424E-07
-2.6644E-07	7.7879E-08	1.4136E-06	6.9595E-08
-2.1730E-07	1.0895E-07	3.0170E-07	1.4761E-06
-1.7958E-07	1.5160E-07	2.8891E-06	2.2364E-06
-1.6769E-07	2.0243E-07	2.6687E-06	-8.4105E-07
-1.1977E-07	1.9393E-07	2.6041E-08	6.5935E-07
-5.5710E-08	1.8967E-07	2.4420E-06	1.8417E-06
-7.1275E-08	1.5745E-07	1.8840E-06	-2.0580E-07
-7.3330E-08	1.7360E-07	1.2870E-06	7.8687E-07
-1.1804E-07	6.1114E-08	1.0671E-06	6.1774E-07
-1.4552E-07	5.4848E-08	1.7628E-06	1.6526E-06
-1.0675E-07	1.0467E-07	1.5331E-06	1.5881E-07
-1.1660E-07	1.2458E-07	1.1079E-06	2.1021E-06
-1.1964E-07	1.4398E-07	2.5062E-06	1.0479E-06
-5.7540E-08	1.7358E-07	2.3445E-06	1.7436E-06
-6.2360E-08	2.5153E-07	3.4048E-06	-7.4179E-07
1.7634E-08	2.1048E-07	-5.5130E-09	1.0949E-07
4.3843E-08	2.0816E-07	1.9266E-06	1.8292E-06
3.7870E-08	1.9854E-07	2.2860E-06	1.2122E-06
2.7615E-08	1.1526E-07	2.8986E-06	2.4399E-07
4.9083E-08	1.0625E-07	1.6380E-06	6.2520E-07
6.7778E-09	4.4084E-08	3.4733E-06	1.0137E-07
7.5889E-08	-3.1422E-09	1.3810E-06	-1.2525E-06
3.9352E-08	4.4099E-08	1.4559E-06	-3.7684E-07
-2.0478E-08	1.3661E-08	-1.8962E-08	-6.0671E-07
2.6833E-08	5.5764E-08	3.8558E-07	1.0942E-06
-5.7986E-08	3.5286E-08	4.2163E-07	1.0939E-06
-6.7260E-08	7.1277E-08	1.3857E-06	1.8411E-06
-2.4238E-08	8.8331E-08	1.3936E-06	1.1783E-06
-3.4855E-08	7.9955E-08	1.9425E-06	1.6406E-06
-4.5997E-08	1.0364E-07	1.9269E-06	9.4149E-07
-3.3336E-08	8.1841E-08	2.2930E-06	1.3453E-06
-9.5832E-09	9.7583E-08	2.7931E-06	3.1657E-07
-2.8442E-08	5.2722E-08	1.8460E-06	-7.9961E-07
-2.6177E-08	1.0537E-07	2.0831E-08	4.6328E-07
2.1063E-08	8.7957E-08	1.9935E-06	1.6939E-06
-3.6259E-08	1.1068E-07	1.5182E-06	-6.9803E-08
5.3411E-08	7.0924E-08	1.0070E-06	1.5470E-06
3.1067E-09	6.8893E-08	2.6770E-06	1.0907E-06
1.1645E-08	6.1094E-08	2.0220E-06	-4.3206E-07
2.9364E-08	8.4927E-08	7.5249E-07	3.7296E-07
4.6477E-08	2.2849E-08	1.6970E-06	5.4639E-07
6.9463E-08	4.5504E-08	4.9798E-07	1.1525E-07
3.9082E-08	-4.8138E-08	6.9052E-07	1.4054E-06
7.8756E-08	-1.1908E-08	8.8120E-07	1.7470E-06
9.4437E-09	-6.2258E-08	2.4801E-06	2.1329E-06
8.0162E-09	-9.7353E-08	2.4600E-06	3.3606E-07
-6.4018E-09	-1.0847E-07	1.6653E-06	4.7574E-07
-1.3699E-08	-8.7130E-08	1.3051E-06	8.5007E-07
-5.4441E-08	-4.7283E-08	2.4875E-06	1.0997E-06
-1.0626E-07	-8.7573E-08	1.8160E-06	-6.8333E-07
-3.7913E-08	-4.0763E-09	4.5536E-07	1.4586E-07
-8.5996E-08	-1.1133E-08	3.5180E-08	1.1993E-06
-2.6959E-08	-3.0320E-08	1.7557E-06	2.7832E-06
-4.6553E-08	1.2655E-08	3.2636E-06	3.3633E-07
4.3177E-08	6.2023E-09	1.0231E-06	-6.8442E-07
5.0126E-08	-9.0209E-09	-7.6769E-08	7.5026E-07
2.5080E-08	-3.6489E-08	4.6057E-07	2.0618E-06
4.5210E-09	-1.1793E-07	1.6035E-06	2.6565E-06
-7.0206E-08	-1.3413E-07	3.2208E-06	1.5538E-06
-4.4120E-08	-1.6902E-07	1.8254E-06	7.7986E-08
-8.4195E-08	-1.2110E-07	1.5978E-06	1.2448E-06
-5.4400E-08	-1.3707E-07	1.7885E-06	7.0980E-07
-1.1303E-07	-1.4542E-07	1.8019E-06	9.6308E-07
-5.8504E-08	-1.3241E-07	1.1324E-06	1.9969E-07
-6.2708E-08	-1.3117E-07	4.6491E-07	2.1306E-06
-1.1092E-07	-1.2468E-07	2.7089E-06	2.4442E-06
-9.1025E-08	-1.7413E-07	3.2445E-06	6.8870E-07
-7.4946E-08	-1.6506E-07	2.0792E-06	-2.6792E-07
-1.7532E-07	-1.9955E-07	1.1379E-06	2.8095E-07
-1.7185E-07	-2.2317E-07	1.2018E-06	9.1034E-07
-2.3497E-07	-1.0585E-07	1.2947E-06	4.9616E-07
-2.1744E-07	-1.2212E-07	-1.8150E-07	1.6267E-06
-2.7154E-07	-1.8446E-07	2.5295E-06	3.3991E-06
-2.9921E-07	-1.2342E-07	3.0164E-06	2.1358E-07
-2.7342E-07	-4.8351E-08	1.0041E-06	1.3800E-06
-2.0686E-07	-4.2431E-08	2.6825E-06	1.9959E-06
-2.2667E-07	-5.9470E-08	2.9924E-06	8.3035E-07
-2.5376E-07	-6.7581E-08	2.5110E-06	3.0928E-07
-2.0700E-07	-5.7691E-09	2.2921E-06	-2.5308E-08
-2.5601E-07	-7.0078E-08	8.5995E-07	-2.6430E-07
-2.3747E-07	-3.9612E-08	8.3918E-07	1.7935E-06
-2.0005E-07	1.2857E-08	2.3135E-06	1.2348E-06
-2.7303E-07	-8.8810E-08	1.6401E-06	9.8943E-07
-2.8833E-07	-2.1423E-08	2.1654E-06	1.3334E-06
-2.2197E-07	-2.6909E-08	2.1604E-06	7.4815E-07
-2.5597E-07	-6.6942E-08	1.8684E-06	1.2051E-06
-2.6857E-07	-5.2173E-08	2.8652E-06	9.8770E-07
-2.8161E-07	-8.1343E-08	2.1025E-06	8.8185E-08
-3.0828E-07	-4.7278E-09	2.2774E-06	9.1396E-07
-3.2810E-07	-2.4966E-08	2.5752E-06	-3.6226E-07
