jMRUI Data Textfile

Filename: Export_to_jmrui.txt

PointsInDataset: 2048
DatasetsInFile: 1
SamplingInterval: 0.250000
ZeroOrderPhase: 0E0
BeginTime: 0E0
TransmitterFrequency: 1.2326E8
MagneticField: 2.8936E0
TypeOfNucleus:  
NameOfPatient:  
DateOfExperiment:  
Spectrometer:  
AdditionalInfo: 
SignalNames:  


Signal and FFT
sig(real)	sig(imag)	fft(real)	fft(imag)
Signal 1 out of 1 in file
3.0512E-06	7.2047E-07	6.2277E-07	2.7471E-07
1.6337E-06	-4.2068E-07	5.8927E-07	6.6310E-07
9.2132E-07	-9.6900E-07	1.2418E-06	1.0838E-06
4.3187E-07	-9.6354E-07	1.8576E-06	1.1169E-06
-2.0100E-07	-8.2851E-07	2.5421E-06	3.9544E-08
-4.8172E-07	-4.7877E-07	1.3026E-06	-3.2130E-07
-5.6585E-07	-1.8198E-07	1.3797E-06	-9.4327E-08
-3.2869E-07	1.4904E-07	4.8259E-07	7.1380E-07
-7.5289E-08	1.4416E-07	2.7604E-06	8.4508E-07
1.9105E-07	6.2849E-08	7.9614E-07	-1.3013E-06
2.2884E-07	-1.5754E-07	4.4344E-07	1.1871E-06
1.7328E-07	-2.9413E-07	9.8177E-07	4.2255E-07
-9.5945E-08	-4.0900E-07	7.5240E-07	1.8615E-06
-2.5405E-07	-2.4127E-07	2.3011E-06	1.5799E-06
-3.8946E-07	-1.4714E-07	2.5234E-06	6.8514E-07
-3.7080E-07	9.1303E-08	1.6254E-06	4.0297E-07
-3.5963E-07	1.9766E-07	2.6811E-06	1.3714E-06
-2.6063E-07	2.5707E-07	3.1584E-06	-8.6679E-07
-1.5425E-07	1.5660E-07	1.2202E-06	-1.3363E-06
-1.7721E-07	2.1789E-07	-3.3574E-07	1.6627E-08
-2.4849E-07	1.6744E-07	1.4710E-06	2.4238E-06
-2.8864E-07	2.1090E-07	3.6511E-06	1.1880E-07
-3.1419E-07	2.1666E-07	2.0327E-06	-2.0295E-06
-2.9145E-07	2.9646E-07	-9.7920E-07	-1.2990E-06
-2.0243E-07	3.5940E-07	-9.0585E-08	1.7140E-06
-1.4627E-08	4.1703E-07	9.2646E-07	6.3000E-07
3.8217E-08	3.1533E-07	9.7307E-07	1.4691E-06
1.0949E-08	2.2233E-07	1.1972E-06	2.9027E-08
-6.9452E-10	1.5687E-07	-1.2064E-07	1.6862E-06
-1.0872E-07	1.2817E-07	2.0941E-06	1.9925E-06
-1.8382E-07	2.2738E-07	2.3046E-06	3.8962E-07
-2.3974E-07	3.6064E-07	6.0330E-07	-4.1112E-07
-1.9703E-07	4.3088E-07	1.1475E-07	1.9872E-06
-1.3024E-07	5.8699E-07	2.1726E-06	1.3346E-06
-4.7312E-10	6.2891E-07	1.0016E-06	5.9743E-07
1.2174E-07	5.5842E-07	1.1336E-06	1.4957E-06
2.6605E-07	4.7133E-07	1.9351E-06	8.7606E-07
3.2147E-07	4.1138E-07	3.2141E-08	1.9881E-07
3.4594E-07	2.8325E-07	5.3567E-07	3.6248E-06
3.3579E-07	2.4232E-07	3.8528E-06	1.3846E-06
2.8928E-07	1.4700E-07	9.8679E-07	-1.1218E-07
2.3354E-07	1.8284E-07	1.2037E-06	2.0228E-06
2.3075E-07	1.6289E-07	2.5225E-06	1.0557E-06
2.0630E-07	9.5404E-08	1.1585E-06	8.8234E-08
2.2961E-07	7.8880E-08	4.7308E-07	1.4609E-06
2.3837E-07	7.1691E-08	7.9990E-07	2.2433E-06
2.4222E-07	5.5033E-08	2.6074E-06	3.2265E-06
1.9556E-07	-2.4810E-08	3.5133E-06	5.6519E-07
1.8042E-07	2.8599E-08	1.8262E-06	7.5859E-07
1.6568E-07	2.4201E-08	2.0860E-06	4.4022E-07
1.3297E-07	7.2888E-08	1.3251E-06	1.3591E-06
2.1057E-07	8.6455E-09	2.5280E-06	5.9972E-07
1.4062E-07	-3.9735E-08	8.0132E-07	8.1467E-07
1.0422E-07	-4.3678E-08	2.0987E-06	1.4936E-06
1.2677E-07	-7.5170E-08	1.4559E-06	1.0188E-06
6.3307E-08	-1.0974E-07	2.3552E-06	1.3154E-06
-5.0150E-08	-6.9782E-08	1.4405E-06	4.1119E-07
-1.6506E-08	3.8260E-08	1.4676E-06	1.4780E-06
-1.4916E-08	7.2152E-08	1.5263E-06	1.2793E-06
2.8568E-08	7.6599E-08	2.2064E-06	1.9748E-06
1.1722E-07	9.2294E-08	2.6741E-06	4.8173E-07
1.7735E-07	3.5925E-08	1.1526E-06	7.9649E-07
1.3037E-07	-7.9899E-08	2.2895E-06	1.7528E-06
9.5043E-08	-1.3131E-07	2.4784E-06	-5.2321E-08
1.5596E-08	-1.3381E-07	2.8377E-07	3.7651E-07
-7.2397E-08	-7.4893E-08	8.1936E-07	2.6976E-06
-1.6825E-07	-4.5150E-08	3.1387E-06	2.5921E-06
-2.1560E-07	-2.4937E-08	3.6774E-06	5.6250E-07
-1.8185E-07	5.3817E-08	2.4917E-06	-7.3705E-07
-1.4739E-07	1.1103E-07	2.3552E-07	-5.3417E-07
-1.0732E-07	1.7362E-07	2.0140E-07	2.4072E-06
-4.4263E-08	1.7053E-07	2.7934E-06	1.8295E-06
1.9735E-08	9.7451E-08	1.6194E-06	4.7143E-07
8.7869E-08	1.2898E-07	1.3199E-06	1.6910E-06
1.0617E-07	6.5538E-08	2.3547E-06	1.5982E-06
6.7596E-08	-2.6872E-08	1.9834E-06	8.1331E-07
7.8378E-08	-1.1833E-07	1.9141E-06	1.6788E-06
2.7900E-08	-1.0934E-07	2.9910E-06	6.6429E-07
-7.0186E-08	-1.7216E-07	1.4831E-06	-1.0171E-07
-1.0399E-07	-8.9203E-08	9.7193E-07	8.7389E-07
-1.7471E-07	8.2548E-10	1.3205E-06	1.4748E-06
-1.2191E-07	9.4682E-08	1.7101E-06	8.1414E-07
-1.7053E-07	6.2446E-08	5.2799E-08	1.4159E-06
-5.4337E-08	1.4082E-07	1.8966E-06	3.7141E-06
8.9367E-08	2.3465E-08	3.9004E-06	1.0427E-06
6.7629E-08	-1.5236E-08	7.6681E-07	1.8122E-07
5.4512E-08	-9.8281E-08	1.4976E-06	3.5740E-06
5.8714E-08	-1.8930E-07	4.6866E-06	1.5137E-06
-3.6509E-08	-2.3284E-07	2.3110E-06	-1.0493E-06
-1.3792E-07	-2.4170E-07	8.4568E-08	6.9459E-07
-1.4465E-07	-1.6066E-07	1.1920E-06	3.1531E-06
-2.0367E-07	-1.3119E-07	3.6590E-06	2.0896E-06
-1.7895E-07	-9.9472E-08	2.4366E-06	4.3122E-07
-1.5700E-07	-3.0269E-08	1.6965E-06	1.5940E-06
-6.6696E-08	-1.0407E-07	2.8668E-06	2.2175E-06
-2.6244E-08	-4.4340E-08	3.8339E-06	8.0727E-07
-2.3211E-08	-1.6833E-07	2.5694E-06	-1.0795E-07
-8.6963E-08	-2.2335E-07	1.8600E-06	3.1058E-07
-1.5873E-07	-2.0968E-07	1.7435E-06	1.5791E-06
-2.0647E-07	-2.5213E-07	4.1429E-06	8.2506E-07
-2.5106E-07	-1.9675E-07	1.8131E-06	-1.9288E-06
-2.7631E-07	-1.2028E-07	7.3302E-08	7.8964E-07
-2.1840E-07	-1.0702E-07	1.3631E-06	1.1433E-06
-1.7343E-07	-3.1839E-08	1.0906E-06	1.7746E-06
-1.8082E-07	-5.1393E-08	2.8215E-06	1.9627E-06
-1.8720E-07	4.4295E-08	2.7607E-06	-2.3083E-07
-2.2625E-07	-6.3420E-08	1.4988E-07	3.0926E-07
-2.7875E-07	-4.4641E-08	1.5803E-06	2.7724E-06
-2.4830E-07	-6.0068E-08	2.4980E-06	7.8028E-07
-2.9217E-07	7.9857E-08	1.2402E-06	2.0417E-06
-2.0523E-07	3.2518E-08	3.2848E-06	1.7727E-06
-2.0806E-07	2.6475E-08	2.4101E-06	1.0451E-06
-1.4653E-07	1.4530E-08	3.3896E-06	1.1045E-06
-1.4680E-07	5.8860E-08	2.8940E-06	-1.1408E-07
-2.0101E-07	-9.5182E-09	2.5119E-06	-7.6604E-07
-1.9347E-07	3.6912E-08	1.7677E-07	-6.4374E-07
-2.0739E-07	4.9486E-08	8.7688E-07	1.6918E-06
-1.5368E-07	8.6135E-08	1.6039E-06	7.7986E-07
-2.4275E-07	6.1924E-08	1.1962E-06	1.0216E-06
-1.3051E-07	1.6502E-07	8.0639E-07	1.2480E-06
-1.4788E-07	1.4944E-07	1.4837E-06	2.2716E-06
-5.8891E-08	1.2902E-07	1.8164E-06	1.7181E-06
-3.3223E-08	1.1156E-07	2.4805E-06	2.3918E-06
-5.1788E-08	6.6034E-08	3.1343E-06	8.5811E-07
-2.2879E-08	6.1151E-08	2.2622E-06	6.4131E-07
-3.6752E-08	5.9677E-08	1.7496E-06	3.9837E-07
-1.0788E-07	1.0079E-07	1.4649E-06	1.3784E-06
-1.0827E-07	8.0423E-08	1.9853E-06	1.1651E-06
-7.2425E-08	9.6770E-08	2.0912E-06	1.3248E-06
-8.5585E-08	1.8845E-07	1.7282E-06	6.2382E-07
-4.3036E-08	1.3258E-07	1.7929E-06	2.0733E-06
-2.8750E-08	1.3196E-07	2.8953E-06	1.8574E-07
-3.3720E-09	1.7818E-07	2.4499E-07	9.1020E-07
9.2532E-09	1.7761E-07	2.0992E-06	2.5159E-06
5.6174E-08	1.9312E-07	2.3934E-06	1.3669E-06
9.0255E-08	8.7543E-08	2.4717E-06	1.3531E-06
3.3511E-08	3.4882E-08	2.1366E-06	9.9776E-07
2.2799E-08	1.6769E-08	2.3022E-06	1.5233E-06
5.4006E-08	5.1975E-08	2.8999E-06	7.6808E-07
8.4904E-08	4.0682E-08	1.7348E-06	3.3005E-07
-5.3609E-08	-1.4739E-09	2.1123E-06	1.3906E-06
-5.0737E-09	4.2091E-08	2.1746E-06	1.7303E-09
3.1640E-08	1.0282E-07	6.4324E-07	1.1223E-06
1.7109E-08	3.3724E-08	1.9176E-06	2.1250E-06
-4.5095E-08	2.3401E-08	2.9554E-06	1.3137E-06
7.4993E-08	7.7425E-08	1.5787E-06	-1.5464E-07
-2.1274E-08	-1.5613E-08	8.6506E-07	2.6486E-06
5.0595E-08	6.5841E-08	3.6490E-06	1.5329E-06
5.2029E-08	1.3903E-07	2.0489E-06	9.1891E-07
-5.2514E-08	-1.1415E-08	3.2106E-06	6.7133E-07
-1.3165E-08	1.3058E-07	1.1271E-06	2.0328E-07
4.0328E-09	4.4985E-08	2.2696E-06	2.0638E-06
4.1901E-08	1.2557E-07	3.3205E-06	9.0703E-07
1.3724E-08	8.9670E-08	3.2775E-06	-9.8899E-07
2.1873E-08	5.8502E-08	-1.1514E-07	-1.0203E-06
8.0128E-08	1.6652E-08	7.9474E-07	1.9346E-06
4.5426E-08	1.0540E-08	1.6601E-06	1.0677E-06
8.0784E-08	7.7701E-08	2.2795E-06	1.1515E-06
5.5180E-08	-1.9726E-08	1.2870E-06	-6.9440E-07
4.0290E-08	-1.1416E-08	-5.4355E-07	1.2705E-06
4.1181E-08	-4.8085E-08	7.3510E-07	2.7718E-06
2.7438E-08	-2.0256E-08	2.4181E-06	2.6627E-06
5.8897E-08	-6.3061E-08	2.2342E-06	8.2631E-07
4.7941E-08	-4.8281E-08	9.0931E-07	2.1957E-06
-1.3014E-08	-9.6276E-08	3.2246E-06	2.6446E-06
-3.1718E-08	-4.5563E-08	2.9443E-06	4.4064E-07
-6.4281E-08	-2.0639E-08	1.7730E-06	1.2324E-06
-6.7942E-08	-2.3690E-08	2.8707E-06	1.1307E-06
2.3258E-08	-1.7322E-08	2.0287E-06	-5.8094E-08
1.4686E-09	4.3762E-08	7.3131E-07	8.3264E-07
-3.1567E-08	-1.5025E-08	1.6122E-06	2.2827E-06
1.6930E-07	-7.7627E-08	2.6966E-06	1.2122E-06
7.1396E-08	-7.2087E-08	2.0529E-06	1.1443E-06
6.6330E-08	-1.0487E-07	2.5620E-06	4.1355E-07
-3.7551E-10	-1.8955E-07	1.0220E-06	5.6834E-07
2.8819E-09	-1.2346E-07	1.9961E-06	9.2865E-07
-6.6138E-08	-1.1480E-07	4.5175E-07	3.7510E-07
5.6182E-08	-1.0636E-07	7.6054E-07	2.0956E-06
-5.6991E-08	-1.2844E-07	1.0120E-06	2.2872E-06
-1.6031E-08	-1.0842E-07	2.6124E-06	2.7843E-06
-3.9117E-08	-1.2973E-07	2.4787E-06	1.1162E-06
-1.5927E-08	-1.3240E-07	2.3298E-06	1.2849E-06
-7.9440E-08	-1.4510E-07	1.0549E-06	6.4000E-07
-4.2662E-08	-1.5054E-07	1.2684E-06	2.8363E-06
-8.6580E-08	-1.2663E-07	2.3500E-06	2.2910E-06
-1.0072E-07	-1.5917E-07	3.6734E-06	2.7085E-06
-1.8172E-07	-1.5160E-07	3.8109E-06	-9.7884E-07
-1.4675E-07	-1.0019E-07	-2.6976E-07	2.1557E-07
-2.0808E-07	-6.7895E-08	1.1417E-06	3.0085E-06
-1.9526E-07	-7.4956E-08	2.7872E-06	2.6563E-06
-1.8171E-07	-5.3122E-09	3.2104E-06	1.7978E-06
-2.0881E-07	-3.5453E-08	3.6532E-06	1.3770E-06
-1.4069E-07	-4.3939E-08	3.1900E-06	-2.8349E-07
-1.2556E-07	-2.3634E-08	1.9383E-06	3.7052E-07
-1.7219E-07	-2.9458E-08	2.1678E-06	-1.3616E-07
-1.0692E-07	-3.6634E-08	5.8100E-07	5.1345E-07
-1.7570E-07	-9.4043E-08	1.3989E-06	1.6795E-06
-1.7731E-07	-6.1861E-08	1.9866E-06	1.6914E-06
-1.5839E-07	-8.1104E-08	2.7952E-06	6.6862E-07
-1.5082E-07	-5.7123E-08	9.6820E-07	-2.1702E-07
-1.8528E-07	1.1096E-09	2.6649E-07	1.5783E-06
-1.5935E-07	-1.5555E-08	1.0532E-06	2.3311E-06
-1.6188E-07	-6.2817E-08	1.8772E-06	2.8641E-06
-1.6675E-07	-4.1788E-08	3.5208E-06	2.1827E-06
-2.4677E-07	-4.6553E-08	2.9461E-06	-9.4051E-08
-2.2396E-07	-2.6117E-08	7.4013E-07	6.0765E-07
-2.2454E-07	-1.9764E-08	1.5849E-06	2.0485E-06
