jMRUI Data Textfile

Filename: Export_to_jmrui.txt

PointsInDataset: 2048
DatasetsInFile: 1
SamplingInterval: 0.250000
ZeroOrderPhase: 0E0
BeginTime: 0E0
TransmitterFrequency: 1.2326E8
MagneticField: 2.8936E0
TypeOfNucleus:  
NameOfPatient:  
DateOfExperiment:  
Spectrometer:  
AdditionalInfo: 
SignalNames:  


Signal and FFT
sig(real)	sig(imag)	fft(real)	fft(imag)
Signal 1 out of 1 in file
1.9672E-06	-1.3720E-07	-3.7689E-06	-7.2668E-07
5.5308E-06	-1.0691E-06	-3.8216E-06	7.8983E-08
3.9107E-06	-2.3651E-06	-3.3224E-06	4.2490E-07
2.5036E-06	-3.3158E-06	-3.0510E-06	5.3597E-07
3.4677E-07	-3.4962E-06	-2.7086E-06	5.7773E-07
-1.1305E-06	-2.7634E-06	-2.4374E-06	4.2647E-07
-2.1266E-06	-1.5410E-06	-2.3627E-06	6.0795E-08
-1.7366E-06	-2.0273E-07	-2.7875E-06	-5.9108E-08
-9.0990E-07	4.7914E-07	-2.8011E-06	2.9118E-07
1.8337E-07	5.6400E-07	-2.7790E-06	1.0341E-07
8.1797E-07	1.8396E-07	-3.1517E-06	4.2884E-07
1.1856E-06	-3.4777E-07	-2.8096E-06	7.6614E-07
9.4370E-07	-8.5169E-07	-2.7677E-06	6.5697E-07
5.7209E-07	-1.0787E-06	-2.7892E-06	9.0647E-07
-2.5911E-08	-1.1677E-06	-2.5016E-06	1.0542E-06
-3.1162E-07	-9.4346E-07	-2.3496E-06	9.1107E-07
-5.8529E-07	-7.7165E-07	-2.3645E-06	1.0099E-06
-4.9347E-07	-5.4936E-07	-2.0787E-06	9.2023E-07
-4.6827E-07	-4.3643E-07	-2.3447E-06	7.8747E-07
-4.5433E-07	-3.2582E-07	-2.1300E-06	1.2296E-06
-6.3704E-07	-2.6392E-07	-1.6945E-06	7.6496E-07
-6.8177E-07	-7.1207E-08	-2.2261E-06	5.2954E-07
-7.4098E-07	1.3532E-07	-2.2653E-06	9.9727E-07
-5.4489E-07	3.5352E-07	-1.9551E-06	1.0071E-06
-2.8815E-07	3.8955E-07	-1.8371E-06	8.6741E-07
8.8651E-08	3.4199E-07	-1.8893E-06	6.5347E-07
2.4682E-07	2.5625E-08	-2.0686E-06	6.2416E-07
3.2558E-07	-1.6533E-07	-2.3280E-06	6.4477E-07
1.5333E-07	-3.2821E-07	-2.4672E-06	1.1642E-06
-1.2412E-07	-3.2270E-07	-1.9768E-06	1.3499E-06
-4.1973E-07	-1.6947E-07	-1.8391E-06	1.1554E-06
-5.4416E-07	1.3037E-07	-1.9329E-06	1.0593E-06
-5.0647E-07	3.8533E-07	-2.0198E-06	1.4901E-06
-2.3176E-07	5.7271E-07	-1.1999E-06	1.5393E-06
-2.9682E-08	6.4750E-07	-1.2270E-06	7.4772E-07
2.8947E-07	5.1147E-07	-1.6819E-06	8.2483E-07
4.2286E-07	3.1197E-07	-1.5975E-06	1.0875E-06
4.7249E-07	1.0857E-07	-1.2636E-06	9.9141E-07
3.6180E-07	3.2010E-10	-1.3532E-06	5.9270E-07
3.3474E-07	1.7988E-08	-1.6562E-06	5.5207E-07
2.5071E-07	-3.4637E-08	-1.9691E-06	7.2660E-07
2.9042E-07	-2.9184E-08	-1.8747E-06	1.3177E-06
3.1354E-07	-1.4222E-07	-1.1491E-06	1.3680E-06
3.3283E-07	-2.0539E-07	-8.5143E-07	7.0463E-07
1.7667E-07	-3.3506E-07	-1.2662E-06	2.6652E-07
7.6848E-08	-3.5495E-07	-1.5082E-06	3.2004E-07
-1.2573E-07	-3.2883E-07	-1.7422E-06	7.1942E-08
-2.0777E-07	-1.4884E-07	-2.4651E-06	3.3113E-07
-2.0434E-07	-3.5146E-08	-2.4200E-06	1.1945E-06
-1.1937E-07	1.3993E-07	-1.8208E-06	1.3883E-06
3.2639E-08	1.9959E-07	-1.5174E-06	1.2250E-06
1.4452E-07	1.2860E-07	-1.3860E-06	9.4743E-07
1.8477E-07	-1.7507E-08	-1.4989E-06	7.5403E-07
1.1718E-07	-1.2548E-07	-1.6641E-06	5.5648E-07
-5.1262E-08	-2.1208E-07	-2.1458E-06	7.0257E-07
-1.7994E-07	-2.1665E-07	-2.0823E-06	1.1673E-06
-3.4360E-07	-9.0820E-08	-1.9268E-06	1.2860E-06
-2.7906E-07	7.3057E-08	-1.6601E-06	1.3595E-06
-1.5517E-07	1.7461E-07	-1.6996E-06	1.0726E-06
9.1345E-09	2.1006E-07	-1.9855E-06	1.3550E-06
1.3737E-07	1.0189E-07	-1.7085E-06	1.7007E-06
1.7472E-07	1.6696E-08	-1.3980E-06	1.7178E-06
1.2643E-07	-6.1789E-08	-1.0708E-06	1.6862E-06
-7.2044E-09	-1.5692E-07	-7.5829E-07	1.2261E-06
-1.7660E-07	-1.0043E-07	-1.1801E-06	8.1234E-07
-2.5480E-07	1.4672E-08	-1.4519E-06	1.0491E-06
-2.0966E-07	1.3006E-07	-1.5206E-06	1.1952E-06
-8.5072E-08	1.8302E-07	-1.4087E-06	1.5019E-06
8.7825E-09	1.7057E-07	-1.1825E-06	1.5181E-06
1.0913E-07	8.7084E-08	-9.0948E-07	1.6593E-06
8.8742E-08	1.6252E-08	-4.8852E-07	1.2827E-06
1.3617E-08	-4.6807E-08	-6.2288E-07	9.7404E-07
-8.1531E-08	-3.3809E-08	-5.5272E-07	7.6017E-07
-1.3370E-07	1.0872E-08	-8.3100E-07	4.4039E-07
-1.7636E-07	8.7454E-08	-1.0620E-06	4.6935E-07
-5.7133E-08	2.0241E-07	-1.2420E-06	4.4800E-07
4.8704E-08	2.5290E-07	-1.3534E-06	5.1554E-07
2.0323E-07	1.7615E-07	-1.6077E-06	4.2588E-07
1.1528E-07	1.2987E-07	-2.0220E-06	8.7512E-07
1.0956E-07	-2.9679E-09	-1.6810E-06	1.4721E-06
7.6212E-08	-5.7102E-08	-1.1520E-06	1.4089E-06
-2.3808E-09	-7.9775E-09	-1.0099E-06	1.0940E-06
-5.3993E-08	3.4978E-08	-1.1315E-06	8.9756E-07
-2.3740E-08	1.5155E-07	-1.3368E-06	9.1814E-07
5.9132E-08	1.6928E-07	-1.3524E-06	1.1657E-06
1.3931E-07	1.3927E-07	-1.0978E-06	1.1781E-06
1.9328E-07	5.2078E-08	-1.1503E-06	1.0263E-06
1.9706E-07	-5.7241E-08	-1.1720E-06	1.2081E-06
1.4436E-07	-1.6301E-07	-8.9347E-07	1.2218E-06
1.1926E-08	-1.6998E-07	-7.6653E-07	1.0168E-06
-4.4901E-08	-1.1217E-07	-7.2744E-07	8.1356E-07
-1.5358E-07	1.3461E-08	-8.7004E-07	5.6188E-07
-9.3172E-08	1.1895E-07	-1.1152E-06	5.8149E-07
-3.5710E-09	2.1358E-07	-1.1564E-06	6.8660E-07
1.0606E-07	2.2818E-07	-1.0725E-06	7.0469E-07
1.8923E-07	1.4464E-07	-1.1053E-06	4.9174E-07
2.1718E-07	3.8952E-08	-1.3357E-06	5.7974E-07
1.7339E-07	-9.2530E-08	-1.1652E-06	5.9339E-07
9.7087E-08	-1.7881E-07	-1.3041E-06	3.2525E-07
4.6722E-08	-1.9919E-07	-1.6090E-06	2.3908E-07
-3.8889E-08	-1.3463E-07	-2.0878E-06	4.6718E-07
-9.7001E-08	-7.1526E-08	-1.9864E-06	9.7872E-07
-9.0805E-08	-6.8294E-08	-1.9181E-06	9.1717E-07
-7.8151E-08	-2.1196E-08	-2.0792E-06	1.2963E-06
-1.3042E-07	-4.0904E-08	-1.6733E-06	1.5898E-06
-9.0456E-08	-1.2971E-09	-1.3493E-06	1.4540E-06
-1.3078E-07	2.4275E-08	-1.3031E-06	1.1923E-06
-1.2502E-07	3.5443E-08	-1.5280E-06	1.1688E-06
-4.4466E-08	8.8311E-08	-1.4930E-06	1.4291E-06
-2.1229E-08	9.6202E-08	-1.1952E-06	1.4206E-06
6.5748E-08	7.9902E-08	-1.1256E-06	1.1307E-06
1.1366E-07	5.7961E-08	-1.3997E-06	9.7588E-07
9.0104E-08	-8.2818E-09	-1.6283E-06	1.2354E-06
7.2138E-08	-1.0544E-07	-1.4558E-06	1.4642E-06
2.7125E-08	-1.3363E-07	-1.3445E-06	1.4729E-06
-6.9684E-08	-7.9286E-08	-1.1729E-06	1.5131E-06
-7.7362E-08	-1.3840E-08	-1.0762E-06	1.3059E-06
-1.4546E-07	3.4659E-08	-1.2199E-06	1.2437E-06
-9.0122E-08	9.9856E-08	-1.2755E-06	1.3060E-06
2.1188E-08	1.2660E-07	-1.2952E-06	1.4335E-06
7.3949E-08	7.5392E-08	-1.0963E-06	1.5235E-06
1.0348E-07	2.9024E-08	-1.0242E-06	1.3435E-06
9.7238E-08	-2.4280E-08	-1.0893E-06	1.3909E-06
8.4919E-08	-1.2562E-07	-9.7111E-07	1.3052E-06
-2.1539E-08	-1.0823E-07	-1.1711E-06	1.2918E-06
-3.5453E-08	-8.2097E-08	-1.0292E-06	1.5204E-06
-8.3271E-08	-3.2253E-08	-8.4912E-07	1.4202E-06
-6.9213E-08	7.2475E-08	-6.7441E-07	1.3074E-06
-2.9871E-08	9.1490E-08	-7.4167E-07	8.4090E-07
3.1214E-09	6.4666E-08	-1.3298E-06	8.6738E-07
4.8977E-08	4.5784E-08	-1.3660E-06	1.4160E-06
5.0260E-08	2.7668E-09	-9.2398E-07	1.5201E-06
4.2539E-08	-3.2666E-08	-7.9172E-07	1.1880E-06
2.0967E-08	-1.2701E-08	-1.0681E-06	1.0953E-06
1.9719E-08	4.1091E-09	-1.0678E-06	1.4115E-06
1.2585E-08	8.7191E-12	-6.6985E-07	1.3332E-06
4.4832E-08	-3.0901E-09	-7.2901E-07	9.1590E-07
7.7808E-08	1.6764E-08	-1.0940E-06	8.6189E-07
8.1279E-08	-1.7545E-08	-1.2566E-06	1.1715E-06
8.7688E-08	-3.5803E-08	-1.0129E-06	1.4049E-06
1.4620E-08	-1.0463E-07	-6.3540E-07	1.2956E-06
-8.3330E-09	-5.7004E-08	-6.1889E-07	6.7121E-07
-6.6200E-08	-8.1198E-08	-1.3414E-06	6.9889E-07
-9.5629E-08	-3.4371E-08	-1.1539E-06	1.1169E-06
-1.0245E-07	-1.1664E-08	-1.2535E-06	9.4392E-07
-3.0160E-08	2.3585E-08	-1.1324E-06	1.2909E-06
-2.1771E-08	3.5167E-08	-9.2632E-07	9.1425E-07
6.4791E-08	1.8129E-08	-1.1644E-06	8.1713E-07
4.8545E-08	-3.6057E-08	-1.4968E-06	6.1549E-07
2.7947E-08	-5.9951E-08	-2.0150E-06	1.2490E-06
-6.2032E-09	-3.0886E-08	-1.4372E-06	1.7184E-06
-3.3504E-08	-6.4393E-08	-1.2675E-06	1.4580E-06
-8.4453E-08	-6.2279E-08	-1.3854E-06	1.6342E-06
-3.9194E-08	-4.1067E-09	-9.3799E-07	1.8689E-06
-8.1702E-08	-1.4107E-08	-6.8567E-07	1.3454E-06
-5.5703E-08	1.4871E-08	-1.0027E-06	1.3726E-06
-3.5401E-08	3.2483E-08	-6.6117E-07	1.3550E-06
-3.9271E-10	4.4164E-09	-8.0227E-07	9.7221E-07
4.0485E-09	2.3836E-08	-1.0113E-06	9.1691E-07
2.0050E-08	2.0179E-08	-1.2773E-06	9.9199E-07
-5.7189E-09	-1.7954E-08	-1.1980E-06	1.1523E-06
1.0188E-08	-3.0831E-08	-1.3853E-06	9.9799E-07
-1.8583E-08	-5.5400E-08	-1.6282E-06	1.4365E-06
-2.2793E-08	-6.8179E-08	-1.1878E-06	1.7317E-06
-3.0001E-08	-4.2507E-08	-9.7610E-07	1.4176E-06
-2.5471E-08	1.5319E-08	-1.1374E-06	1.4381E-06
-6.1730E-08	1.0609E-08	-9.3081E-07	1.3855E-06
-4.9105E-08	3.7870E-08	-1.2230E-06	1.2289E-06
-2.7880E-08	-5.4664E-10	-1.2194E-06	1.6001E-06
-3.8564E-08	3.4301E-08	-1.0201E-06	1.6625E-06
2.1275E-10	5.4027E-08	-5.8677E-07	1.7094E-06
3.9910E-08	3.2875E-08	-4.5866E-07	9.6515E-07
1.0776E-08	1.5866E-08	-1.0609E-06	9.5078E-07
2.1249E-08	1.2181E-08	-9.0891E-07	1.0299E-06
8.8608E-09	-1.9309E-08	-1.2785E-06	7.6958E-07
4.2950E-08	-2.4152E-08	-1.5623E-06	1.2002E-06
-6.9821E-10	-9.3775E-09	-1.3641E-06	1.4251E-06
3.2590E-09	-5.9551E-08	-1.2219E-06	1.5114E-06
-7.3069E-09	-2.8893E-08	-8.8508E-07	1.3621E-06
1.1152E-08	-1.2525E-08	-1.1350E-06	8.1905E-07
6.5169E-09	-1.3454E-08	-1.7204E-06	1.0768E-06
8.7881E-09	-1.3528E-08	-1.6669E-06	1.4348E-06
-2.0524E-08	-3.0260E-08	-1.6617E-06	1.5963E-06
8.0581E-09	-4.9016E-08	-1.5666E-06	1.7911E-06
2.1564E-08	-6.4750E-08	-1.3942E-06	1.9769E-06
9.9292E-09	-4.4222E-08	-1.0902E-06	1.8842E-06
-2.2106E-08	-5.5644E-08	-1.1316E-06	1.7834E-06
-2.9595E-08	-4.8459E-08	-9.6899E-07	1.7051E-06
-3.4595E-08	-3.8395E-08	-1.2514E-06	1.4729E-06
-2.3342E-08	-3.2012E-08	-1.4555E-06	1.8536E-06
-2.0986E-08	-3.1436E-08	-1.2059E-06	2.1108E-06
-4.6379E-08	-1.3973E-08	-9.0894E-07	2.0730E-06
-6.5228E-08	-3.1091E-08	-8.5090E-07	1.9315E-06
-6.0199E-08	-2.7448E-09	-7.3792E-07	1.8556E-06
-6.2197E-08	2.3407E-10	-9.1336E-07	1.6372E-06
-4.2414E-08	-7.1722E-09	-1.0841E-06	1.9966E-06
-3.3031E-08	1.1573E-08	-6.0803E-07	2.1603E-06
-2.9393E-08	5.7083E-09	-4.0402E-07	1.7347E-06
-1.0936E-09	2.2248E-08	-6.3410E-07	1.6293E-06
3.6974E-09	-1.1506E-08	-5.1231E-07	1.6154E-06
-8.2687E-09	-2.6165E-09	-6.4183E-07	1.3912E-06
-3.2205E-08	-2.6077E-08	-7.7566E-07	1.3219E-06
-3.8627E-08	2.5398E-09	-1.2976E-06	1.4260E-06
