jMRUI Data Textfile

Filename: Export_to_jmrui.txt

PointsInDataset: 2048
DatasetsInFile: 1
SamplingInterval: 0.250000
ZeroOrderPhase: 0E0
BeginTime: 0E0
TransmitterFrequency: 1.2326E8
MagneticField: 2.8936E0
TypeOfNucleus:  
NameOfPatient:  
DateOfExperiment:  
Spectrometer:  
AdditionalInfo: 
SignalNames:  


Signal and FFT
sig(real)	sig(imag)	fft(real)	fft(imag)
Signal 1 out of 1 in file
1.5125E-06	1.4587E-07	-2.4854E-06	-7.2074E-07
3.8084E-06	-4.9310E-07	-2.6151E-06	-4.2645E-07
2.6333E-06	-1.7574E-06	-2.4991E-06	-7.8020E-08
1.6786E-06	-2.2859E-06	-2.5487E-06	-4.4071E-08
5.0236E-08	-2.4698E-06	-2.5591E-06	5.0374E-07
-1.0095E-06	-1.8916E-06	-2.0311E-06	6.1023E-07
-1.6784E-06	-1.0212E-06	-2.0212E-06	5.9716E-07
-1.3222E-06	-1.3034E-07	-1.5003E-06	8.3701E-07
-8.2331E-07	3.3940E-07	-1.0989E-06	7.5287E-08
1.8806E-08	3.7649E-07	-1.8008E-06	-3.3025E-07
4.4298E-07	7.0735E-08	-2.1780E-06	6.4959E-08
6.4135E-07	-3.3702E-07	-2.2521E-06	4.1920E-07
4.7486E-07	-6.4638E-07	-1.9819E-06	8.7786E-07
1.5307E-07	-7.4687E-07	-1.4805E-06	6.8909E-07
-2.6626E-07	-7.4708E-07	-1.7461E-06	4.3814E-07
-3.7485E-07	-5.7599E-07	-1.7706E-06	8.8745E-07
-5.0805E-07	-3.8494E-07	-1.2878E-06	9.2149E-07
-4.2451E-07	-2.7405E-07	-1.0807E-06	6.5095E-07
-3.9942E-07	-2.8060E-07	-1.1167E-06	2.7561E-07
-3.2986E-07	-2.7317E-07	-1.5777E-06	3.0180E-07
-5.2783E-07	-2.4468E-07	-1.3641E-06	7.5537E-07
-6.2415E-07	-9.3396E-08	-9.9473E-07	3.8254E-07
-6.3906E-07	5.0424E-08	-1.3343E-06	8.9499E-08
-5.3670E-07	2.4594E-07	-1.6529E-06	2.2358E-07
-4.0327E-07	3.6143E-07	-1.7436E-06	6.1459E-07
-8.9940E-08	3.1307E-07	-1.4089E-06	8.0032E-07
7.7522E-08	1.7688E-07	-1.2627E-06	6.9750E-07
1.8671E-07	-1.4088E-08	-1.1306E-06	5.8974E-07
1.0320E-07	-1.5521E-07	-1.2835E-06	3.7882E-07
-1.0565E-07	-2.1478E-07	-1.4562E-06	5.5611E-07
-3.6658E-07	-1.1999E-07	-1.4085E-06	6.5546E-07
-4.1700E-07	1.2973E-07	-1.4852E-06	8.2551E-07
-4.8398E-07	3.3511E-07	-1.2105E-06	1.2472E-06
-3.2532E-07	4.5810E-07	-4.6538E-07	1.0523E-06
-4.0820E-08	5.1059E-07	-5.2601E-07	3.1411E-07
1.4257E-07	4.4151E-07	-9.1398E-07	3.3323E-07
3.0540E-07	3.1993E-07	-8.2420E-07	3.8598E-07
3.3642E-07	1.4535E-07	-7.8589E-07	1.9259E-07
2.1581E-07	2.5509E-08	-1.0151E-06	-5.9934E-08
2.1907E-07	4.0801E-08	-1.3979E-06	7.9558E-08
9.2240E-08	-1.6711E-09	-1.4178E-06	3.6649E-07
2.1808E-07	3.6126E-08	-1.3448E-06	4.7364E-07
2.1172E-07	-7.7023E-09	-1.2741E-06	5.8750E-07
2.1105E-07	-6.9772E-08	-1.0600E-06	5.5423E-07
1.7904E-07	-1.9629E-07	-1.1653E-06	3.5368E-07
1.2312E-07	-2.8463E-07	-1.2364E-06	5.5103E-07
5.7159E-09	-2.7353E-07	-1.0913E-06	4.7682E-07
-8.7595E-08	-1.6326E-07	-1.1701E-06	5.2680E-07
-1.7062E-07	-3.8865E-08	-9.2328E-07	4.3152E-07
-7.3570E-08	-5.4431E-09	-1.2437E-06	6.9684E-08
3.6145E-08	8.6711E-08	-1.6328E-06	5.3502E-07
9.1894E-08	1.0461E-07	-1.1185E-06	8.3513E-07
1.3169E-07	-2.8417E-08	-1.0181E-06	3.4648E-07
5.5377E-08	-9.3129E-08	-1.3801E-06	4.1968E-07
-4.7796E-08	-1.5326E-07	-1.2711E-06	5.6434E-07
-1.4546E-07	-1.4124E-07	-1.2939E-06	4.4174E-07
-2.1648E-07	-6.1333E-08	-1.5796E-06	4.2590E-07
-2.1899E-07	5.7282E-08	-1.8109E-06	9.1374E-07
-7.9721E-08	1.2183E-07	-1.3826E-06	1.3215E-06
5.4993E-08	1.2352E-07	-1.0199E-06	1.2491E-06
1.7757E-07	6.0576E-08	-7.8648E-07	1.1333E-06
1.6938E-07	-1.5951E-08	-6.1873E-07	9.4358E-07
9.8769E-08	-1.2364E-07	-5.0085E-07	5.9887E-07
-4.0686E-08	-1.5143E-07	-8.7636E-07	2.0190E-07
-1.4263E-07	-1.1686E-07	-1.3573E-06	4.8337E-07
-1.7523E-07	1.7215E-08	-1.2624E-06	8.6948E-07
-1.8742E-07	1.0785E-07	-1.0492E-06	9.8336E-07
-7.2172E-08	1.8576E-07	-8.4641E-07	8.6776E-07
-4.2081E-09	1.6445E-07	-1.0734E-06	8.1751E-07
1.1350E-07	1.2726E-07	-8.0048E-07	1.3124E-06
8.1679E-08	1.7375E-08	-1.1769E-07	8.1646E-07
4.5412E-08	-7.0548E-08	-5.2635E-07	1.8107E-07
-3.6028E-08	-6.1754E-08	-9.6767E-07	2.8962E-07
-1.0499E-07	-1.3418E-08	-1.0802E-06	5.5234E-07
-1.1112E-07	8.2404E-08	-9.4479E-07	6.6915E-07
-6.0283E-08	1.1064E-07	-9.0665E-07	6.2851E-07
-9.8312E-10	1.5663E-07	-9.4194E-07	5.9481E-07
1.3900E-07	1.5373E-07	-1.0024E-06	7.4888E-07
1.2543E-07	5.9867E-08	-7.3545E-07	7.3560E-07
9.0894E-08	1.8206E-09	-9.1103E-07	5.3588E-07
5.0801E-08	-3.5533E-08	-8.8093E-07	8.0891E-07
1.0488E-08	1.1912E-08	-6.7363E-07	5.7575E-07
-1.5580E-08	9.4632E-08	-9.7072E-07	5.3556E-07
2.4161E-09	1.4089E-07	-8.9131E-07	8.3917E-07
6.3661E-08	9.8076E-08	-5.1335E-07	8.0373E-07
1.2545E-07	9.5129E-08	-3.4014E-07	2.9672E-07
1.8563E-07	5.4455E-08	-8.9268E-07	-1.1311E-07
1.9158E-07	-5.0829E-08	-1.3875E-06	3.0284E-07
9.5236E-08	-1.3403E-07	-1.2323E-06	6.8776E-07
5.0502E-08	-1.4114E-07	-1.0058E-06	7.6317E-07
-7.6732E-08	-1.2149E-07	-8.0938E-07	5.8395E-07
-1.1249E-07	-8.3978E-09	-1.0408E-06	3.1296E-07
-9.3918E-08	8.6564E-08	-1.4104E-06	5.6529E-07
-1.3199E-08	1.2787E-07	-1.2340E-06	9.8853E-07
1.3455E-07	1.6769E-07	-9.2891E-07	9.3298E-07
1.7763E-07	1.1036E-07	-8.9126E-07	8.9638E-07
2.0530E-07	-3.4699E-08	-6.9321E-07	8.1695E-07
1.7757E-07	-6.9425E-08	-7.7919E-07	5.5816E-07
1.0664E-07	-1.4818E-07	-9.5677E-07	6.6062E-07
2.5413E-08	-1.4907E-07	-7.7969E-07	7.2321E-07
-4.5819E-08	-1.2551E-07	-8.0243E-07	4.3877E-07
-4.8209E-08	-8.2116E-08	-1.1112E-06	4.8746E-07
-7.2319E-08	-4.2095E-08	-1.1254E-06	6.6451E-07
-2.6162E-08	-4.7589E-08	-1.1437E-06	8.1783E-07
-3.1913E-08	-5.4399E-08	-8.4932E-07	9.2429E-07
-4.4485E-08	-1.7896E-08	-8.1701E-07	5.5901E-07
-7.1117E-08	-2.6429E-08	-1.1602E-06	6.6772E-07
-7.6575E-08	-9.5430E-09	-9.5101E-07	9.0300E-07
-5.4179E-08	5.8250E-08	-8.7696E-07	6.5988E-07
-1.1238E-08	1.1158E-07	-1.0954E-06	7.2951E-07
1.9993E-08	9.7972E-08	-9.5678E-07	8.4460E-07
5.8313E-08	1.5399E-08	-1.0460E-06	6.9899E-07
8.1698E-08	7.4544E-09	-1.1588E-06	1.0467E-06
7.9656E-08	-4.9335E-08	-6.3359E-07	1.0510E-06
2.0920E-09	-6.9053E-08	-8.0542E-07	5.6243E-07
-4.8528E-08	-8.5446E-08	-1.0653E-06	8.1963E-07
-7.5681E-08	-5.8172E-08	-9.5496E-07	8.6127E-07
-1.1362E-07	2.3905E-09	-9.5588E-07	1.0064E-06
-6.6075E-08	3.1198E-08	-7.1521E-07	9.6726E-07
-3.9133E-08	8.6652E-08	-6.5972E-07	8.3150E-07
5.7673E-08	5.6850E-08	-7.0903E-07	5.6105E-07
8.0971E-08	3.0839E-08	-1.0385E-06	6.5594E-07
1.0371E-07	-1.2405E-08	-8.9609E-07	7.4253E-07
8.9845E-08	-7.0394E-08	-1.1473E-06	6.2312E-07
4.8455E-08	-5.0649E-08	-1.3094E-06	1.0427E-06
-7.0949E-09	-5.3653E-08	-8.8737E-07	1.3514E-06
-3.7539E-08	-2.3428E-08	-5.6881E-07	9.6457E-07
-3.8614E-08	2.2283E-08	-8.6371E-07	9.2439E-07
5.1701E-09	4.8063E-08	-6.0356E-07	1.0192E-06
1.2965E-08	5.2170E-08	-6.5847E-07	7.9486E-07
1.9965E-08	3.8244E-08	-5.6819E-07	7.5384E-07
1.5579E-10	5.4208E-09	-8.2810E-07	4.3171E-07
2.3105E-08	1.5681E-09	-1.1487E-06	7.0562E-07
-9.8395E-10	-2.9028E-08	-1.1321E-06	9.4968E-07
-1.2024E-08	-2.6899E-08	-9.3493E-07	1.1710E-06
4.4882E-08	9.6969E-09	-7.5098E-07	1.0864E-06
4.0054E-08	3.6504E-08	-6.0405E-07	1.1767E-06
5.2555E-08	3.9343E-08	-1.9190E-07	7.9362E-07
7.8887E-08	-3.9335E-08	-7.0125E-07	1.8075E-07
6.2095E-08	-6.2416E-08	-1.2573E-06	6.8504E-07
2.7519E-08	-9.4001E-08	-9.1086E-07	9.1346E-07
1.7823E-08	-9.2374E-08	-1.0421E-06	8.7050E-07
-6.0298E-08	-8.4789E-08	-8.1128E-07	1.0979E-06
-5.2401E-08	-4.9250E-08	-7.2201E-07	8.4171E-07
-6.8597E-08	-1.6429E-08	-8.0945E-07	8.0780E-07
-3.4150E-08	-2.9383E-09	-1.0115E-06	8.2568E-07
1.3152E-08	3.5890E-08	-8.4995E-07	1.2047E-06
2.4751E-08	1.7682E-08	-4.9945E-07	9.0675E-07
1.1563E-08	-3.7411E-08	-7.3157E-07	7.2848E-07
2.6064E-08	-6.4336E-08	-7.5113E-07	8.0994E-07
-3.1808E-08	-6.3171E-08	-6.9549E-07	7.3203E-07
-4.7137E-08	-5.9239E-08	-7.7690E-07	5.9138E-07
-4.4254E-08	-4.3110E-08	-9.5649E-07	5.1583E-07
-2.3493E-08	-3.3383E-08	-1.2610E-06	6.4764E-07
-4.8107E-08	-2.5909E-08	-1.1842E-06	1.0090E-06
-4.6906E-08	3.4776E-08	-1.0015E-06	9.5548E-07
-1.5750E-08	3.0979E-08	-1.0544E-06	9.6606E-07
9.0671E-09	3.0048E-08	-9.6805E-07	1.0673E-06
-1.8059E-08	2.0813E-08	-7.5621E-07	8.7560E-07
-5.0059E-09	2.2370E-08	-1.1444E-06	5.7468E-07
3.6904E-09	-4.8442E-09	-1.4050E-06	9.9359E-07
2.7087E-08	-1.4821E-08	-1.2767E-06	1.0819E-06
8.6121E-09	-2.5333E-08	-1.3945E-06	1.2546E-06
-6.4087E-09	-1.6046E-08	-1.2643E-06	1.4946E-06
-1.6476E-08	-4.7597E-08	-1.0734E-06	1.5842E-06
-2.8907E-08	-2.1477E-08	-9.9350E-07	1.5926E-06
-6.4582E-09	-1.3324E-08	-8.2551E-07	1.7166E-06
-4.1084E-08	4.0209E-09	-7.1373E-07	1.6085E-06
-4.0074E-08	9.6701E-09	-6.6959E-07	1.8174E-06
-2.0618E-08	3.9232E-08	-2.0454E-07	1.8749E-06
1.8237E-08	3.0071E-08	2.6783E-07	1.4562E-06
3.1304E-08	2.2244E-08	-8.5397E-09	6.6777E-07
4.6326E-08	5.4884E-08	-6.6609E-07	9.3496E-07
2.7689E-08	4.6231E-08	-3.6907E-07	1.2353E-06
2.5906E-08	3.2375E-09	-1.9207E-07	1.0216E-06
2.2741E-08	-2.4561E-08	-2.9139E-07	7.1509E-07
3.0240E-08	-1.2085E-08	-5.8482E-07	7.8734E-07
5.2882E-10	-1.6283E-08	-5.3249E-07	7.7741E-07
1.3123E-08	-3.4706E-08	-8.0383E-07	8.2566E-07
6.6136E-09	-7.6538E-09	-7.0140E-07	1.0212E-06
4.8983E-09	2.5653E-09	-7.7549E-07	1.0483E-06
1.2629E-08	8.5253E-09	-5.5695E-07	1.2897E-06
1.9850E-08	-1.9455E-08	-2.8227E-07	1.0329E-06
3.3364E-08	-4.8113E-08	-4.2501E-07	7.0386E-07
-1.0006E-08	-4.5511E-08	-8.6866E-07	7.2350E-07
2.1143E-09	-2.5600E-08	-9.6186E-07	1.2548E-06
4.3968E-09	-2.6287E-08	-4.1298E-07	1.5024E-06
-1.2097E-08	-3.1474E-08	-8.5294E-08	1.0045E-06
-2.2454E-08	-3.5343E-08	-4.3518E-07	8.6231E-07
-3.4570E-08	7.2289E-09	-1.9598E-07	9.9755E-07
-1.9403E-08	-2.8797E-08	-1.8142E-07	5.0234E-07
-4.9959E-08	-5.6109E-09	-6.3936E-07	4.0490E-07
-6.3683E-09	-8.2326E-09	-8.9553E-07	7.0776E-07
-1.0181E-08	-3.8381E-09	-6.4580E-07	9.8142E-07
-5.1943E-08	-3.3382E-08	-5.2420E-07	7.1645E-07
-5.2146E-08	5.6154E-09	-7.1817E-07	7.6677E-07
-1.4538E-08	-1.2431E-08	-5.7958E-07	8.0696E-07
-1.6308E-08	1.6166E-11	-6.4311E-07	6.6625E-07
-2.5709E-08	8.7806E-09	-6.8218E-07	7.5212E-07
4.4852E-09	6.0721E-10	-5.5865E-07	5.6543E-07
-2.4877E-08	-1.3764E-08	-9.9593E-07	3.5186E-07
-3.4473E-08	-4.6823E-09	-1.2692E-06	8.9939E-07
-7.8805E-09	-5.4777E-09	-7.8607E-07	1.1478E-06
