jMRUI Data Textfile

Filename: Export_to_jmrui.txt

PointsInDataset: 2048
DatasetsInFile: 1
SamplingInterval: 0.250000
ZeroOrderPhase: 0E0
BeginTime: 0E0
TransmitterFrequency: 1.2326E8
MagneticField: 2.8936E0
TypeOfNucleus:  
NameOfPatient:  
DateOfExperiment:  
Spectrometer:  
AdditionalInfo: 
SignalNames:  


Signal and FFT
sig(real)	sig(imag)	fft(real)	fft(imag)
Signal 1 out of 1 in file
1.1990E-06	2.3176E-07	-1.8456E-06	2.6228E-08
2.7164E-06	-2.4896E-07	-1.5173E-06	3.3619E-07
1.8350E-06	-1.1346E-06	-1.3881E-06	1.5285E-07
1.2364E-06	-1.4451E-06	-1.5551E-06	3.6399E-07
1.0629E-07	-1.5636E-06	-1.1867E-06	5.9011E-07
-6.5152E-07	-1.1650E-06	-1.0208E-06	3.1506E-07
-1.0965E-06	-5.8488E-07	-1.2340E-06	3.1956E-07
-8.5665E-07	-5.2629E-08	-1.1365E-06	6.9308E-07
-4.8426E-07	2.7453E-07	-5.7912E-07	6.6579E-07
8.3129E-08	2.3857E-07	-4.4402E-07	1.9906E-07
3.2389E-07	2.3077E-09	-5.9337E-07	-1.0502E-07
4.4226E-07	-2.2759E-07	-1.0001E-06	-1.6424E-07
2.7270E-07	-5.0489E-07	-1.0040E-06	1.8763E-07
3.4433E-08	-5.0101E-07	-8.6099E-07	8.8777E-08
-2.4429E-07	-4.5312E-07	-8.6675E-07	1.3676E-07
-3.1594E-07	-2.4550E-07	-7.9770E-07	-6.5106E-08
-3.5994E-07	-1.6103E-07	-1.0544E-06	-4.7677E-08
-2.2873E-07	-8.7367E-08	-1.0068E-06	4.1216E-08
-1.9682E-07	-1.6094E-07	-1.1148E-06	7.7523E-08
-1.9032E-07	-1.9127E-07	-9.0052E-07	2.4624E-07
-3.4115E-07	-2.3154E-07	-7.5254E-07	-2.3730E-07
-4.3074E-07	-1.3709E-07	-1.5059E-06	-4.2625E-07
-5.3926E-07	-3.0199E-08	-1.8304E-06	3.5219E-07
-5.0734E-07	1.7986E-07	-1.4024E-06	8.1807E-07
-3.6962E-07	2.7239E-07	-9.0053E-07	8.6804E-07
-1.3039E-07	3.0157E-07	-6.4130E-07	5.0224E-07
4.8437E-08	2.3030E-07	-7.3279E-07	3.7807E-07
1.3690E-07	3.7816E-08	-6.6698E-07	2.2949E-07
5.0561E-08	-4.2785E-08	-8.2596E-07	1.6493E-07
-6.8347E-08	-1.2271E-07	-7.5588E-07	1.2278E-07
-2.4875E-07	4.4222E-08	-9.4362E-07	-1.9976E-08
-3.7105E-07	9.5321E-08	-1.0320E-06	5.6509E-08
-3.4150E-07	2.6094E-07	-1.1685E-06	7.6701E-08
-2.2515E-07	3.9696E-07	-1.0804E-06	1.8673E-07
-1.3079E-08	4.1547E-07	-1.3103E-06	-1.1038E-07
1.3736E-07	3.7340E-07	-1.7523E-06	4.5558E-07
1.7458E-07	1.6848E-07	-1.1658E-06	7.5551E-07
2.6890E-07	9.2024E-08	-1.2198E-06	3.8088E-07
1.9440E-07	2.5868E-08	-1.4878E-06	6.3968E-07
1.3357E-07	-5.4926E-08	-1.3804E-06	1.0272E-06
1.1018E-07	5.7435E-08	-9.0271E-07	1.2020E-06
1.4012E-07	6.7654E-08	-6.5288E-07	9.3238E-07
1.4659E-07	8.8611E-08	-5.2132E-07	8.2080E-07
1.9556E-07	-1.7510E-08	-5.0516E-07	4.6547E-07
2.0680E-07	-1.3237E-07	-7.3218E-07	3.7754E-07
1.1917E-07	-1.6861E-07	-9.6938E-07	3.4666E-07
-5.4343E-09	-2.3405E-07	-1.0749E-06	7.6909E-07
-4.5213E-08	-1.5518E-07	-6.6838E-07	7.4345E-07
-8.9601E-08	-5.5497E-08	-8.0793E-07	5.9905E-07
-8.5720E-08	8.4921E-09	-7.1684E-07	7.1634E-07
1.1641E-08	7.4150E-08	-6.3833E-07	6.4253E-07
4.6225E-08	1.8239E-08	-5.3425E-07	4.8968E-07
8.0945E-08	-1.9480E-08	-8.1518E-07	2.6309E-07
6.7655E-08	-9.4656E-08	-1.0370E-06	5.9285E-07
-2.7489E-08	-7.3417E-08	-7.5223E-07	7.1787E-07
-1.0542E-07	-1.0667E-07	-7.9516E-07	5.1075E-07
-1.4732E-07	-6.2735E-08	-8.8559E-07	7.3416E-07
-1.0422E-07	3.1513E-08	-5.9266E-07	6.4883E-07
-3.8758E-08	9.5994E-08	-8.0187E-07	4.2350E-07
7.3766E-08	5.8676E-08	-9.7127E-07	5.5860E-07
8.6690E-08	-2.2806E-08	-1.0335E-06	7.9844E-07
8.3287E-08	-7.6492E-08	-6.9738E-07	9.1267E-07
3.0371E-08	-1.3129E-07	-7.7519E-07	6.1076E-07
-6.2219E-08	-1.4036E-07	-9.5163E-07	8.7915E-07
-1.7169E-07	-1.2303E-07	-7.6286E-07	1.0169E-06
-2.2404E-07	2.9238E-08	-5.1967E-07	1.0987E-06
-1.8143E-07	8.7966E-08	-2.8196E-07	7.3059E-07
-7.2427E-08	1.0881E-07	-6.7540E-07	5.6720E-07
-1.6854E-08	9.4546E-08	-7.0373E-07	9.0335E-07
6.3192E-08	7.5491E-08	-4.2627E-07	8.8555E-07
5.8119E-08	4.8032E-08	-4.5504E-07	6.3211E-07
4.3146E-08	1.4744E-08	-7.1326E-07	7.1415E-07
-4.0087E-08	-3.7216E-08	-6.0368E-07	1.0160E-06
-7.5468E-08	1.3127E-08	-1.9730E-07	9.8279E-07
-4.1809E-08	2.6967E-08	-1.2695E-07	4.4768E-07
1.5402E-08	9.9941E-08	-6.8601E-07	3.5986E-07
2.9110E-08	1.0632E-07	-7.4581E-07	7.2010E-07
9.1685E-08	7.5273E-08	-7.3833E-07	8.1675E-07
1.0128E-07	3.4021E-08	-5.6878E-07	1.0489E-06
8.6854E-08	2.1570E-08	-4.0517E-07	8.9444E-07
2.9756E-09	-1.2765E-08	-4.6080E-07	9.5541E-07
-1.9882E-08	-1.1069E-08	-4.0069E-07	9.6597E-07
-7.5588E-08	5.7637E-08	-3.3472E-07	1.2985E-06
-1.5040E-09	9.2070E-08	5.0439E-07	1.1817E-06
8.3643E-09	1.3154E-07	4.0876E-07	1.5321E-07
1.4801E-07	8.7372E-08	-3.5560E-07	1.9911E-07
1.3254E-07	1.6981E-08	-3.9830E-07	4.7385E-07
1.8659E-07	-7.9893E-08	-5.5704E-07	7.4505E-07
9.7989E-08	-1.1342E-07	2.3802E-08	1.1859E-06
2.6165E-08	-1.3835E-07	6.1323E-07	5.2606E-07
-1.9480E-08	-6.5061E-08	2.9968E-07	-4.5037E-08
-7.9077E-08	-5.3056E-08	-3.0452E-08	-2.2828E-07
-1.2268E-08	4.1862E-08	-3.7646E-07	-2.7636E-07
-9.9268E-09	6.3466E-08	-6.9204E-07	-2.1238E-07
1.0645E-07	1.0322E-07	-9.9193E-07	5.9914E-08
1.4886E-07	6.0548E-08	-1.0130E-06	4.6050E-07
1.6640E-07	-3.3208E-08	-7.4649E-07	7.5097E-07
1.4813E-07	-1.1657E-07	-4.3029E-07	6.5774E-07
8.6360E-08	-1.2039E-07	-3.5479E-07	5.3868E-07
3.5012E-08	-1.2473E-07	-2.3511E-07	2.5872E-07
-7.2819E-08	-1.1604E-07	-6.5389E-07	2.5937E-09
-4.0121E-08	-8.7330E-08	-9.0766E-07	3.3675E-07
-7.6564E-08	-2.5811E-08	-8.1925E-07	4.5922E-07
-3.9674E-08	-6.0591E-08	-9.1426E-07	5.1229E-07
-4.8523E-08	-1.9291E-08	-9.5709E-07	7.8031E-07
-4.9736E-08	-1.0691E-08	-7.2571E-07	9.8709E-07
-6.0405E-08	-3.1452E-08	-5.2640E-07	1.0037E-06
-2.0325E-08	-2.2754E-08	-2.9634E-07	9.9265E-07
-6.3194E-08	2.3472E-08	-1.4991E-07	8.4847E-07
-3.4048E-08	7.8575E-08	4.9314E-08	7.5388E-07
1.5695E-08	5.0070E-08	1.8152E-07	3.0886E-07
2.8511E-08	2.7992E-08	-1.1091E-07	-2.1768E-08
5.7414E-08	1.6081E-08	-4.2761E-07	-2.0126E-07
4.5985E-08	-4.8565E-08	-1.0308E-06	-1.0035E-07
6.5755E-09	-8.1973E-08	-1.1313E-06	6.0037E-07
-2.8734E-08	-3.7006E-08	-6.1907E-07	6.6925E-07
-7.8784E-08	-4.1339E-08	-8.0037E-07	3.8795E-07
-5.5192E-08	-5.9062E-09	-1.0054E-06	8.0543E-07
-5.3456E-08	5.7354E-08	-5.4679E-07	1.1138E-06
-3.4400E-08	8.0560E-08	-7.3232E-08	7.6244E-07
3.9596E-08	7.7645E-08	-3.0805E-07	2.2565E-07
5.3171E-08	2.3509E-08	-7.1702E-07	3.5801E-07
6.0182E-08	-1.9511E-08	-7.2528E-07	5.1876E-07
7.3615E-08	-3.1522E-08	-7.5961E-07	6.5750E-07
2.5783E-08	-3.8935E-08	-6.2140E-07	7.3254E-07
-5.5115E-08	-2.3186E-08	-5.9819E-07	7.1293E-07
-3.4773E-08	-4.1144E-08	-5.4872E-07	7.0989E-07
-3.2180E-09	5.0140E-08	-6.1226E-07	7.2177E-07
-4.9741E-09	6.2108E-08	-5.4228E-07	8.8829E-07
-1.1466E-08	5.6868E-08	-3.0169E-07	9.0499E-07
1.1562E-08	3.4544E-08	-1.3876E-07	6.9695E-07
2.9018E-08	2.3911E-08	-1.8153E-07	5.4541E-07
3.2861E-09	-1.0210E-08	-1.0216E-07	4.0295E-07
2.9081E-08	9.5687E-09	-2.6959E-07	5.2411E-08
1.1494E-08	1.8195E-09	-7.0276E-07	7.6813E-08
2.7934E-08	2.7198E-09	-7.6863E-07	3.3179E-07
6.6898E-08	-1.7176E-08	-8.3781E-07	2.7971E-07
4.7457E-08	-1.3738E-08	-1.0825E-06	6.2320E-07
8.7319E-08	-2.7785E-09	-6.5361E-07	9.3609E-07
4.1965E-08	-3.4324E-08	-3.5224E-07	6.1588E-07
8.0398E-09	-9.8468E-08	-4.5020E-07	2.6074E-07
-4.0489E-09	-8.5170E-08	-8.3083E-07	8.7115E-08
-1.8602E-08	-4.1569E-08	-1.2603E-06	2.4980E-07
-3.7141E-08	-1.0723E-08	-1.4657E-06	7.5962E-07
-1.6841E-08	-8.1538E-09	-1.2069E-06	1.1157E-06
-1.5706E-08	7.5991E-09	-1.0229E-06	1.3154E-06
-7.8816E-09	-8.7963E-09	-5.5801E-07	1.2995E-06
2.9126E-08	-1.8097E-08	-6.5880E-07	9.8421E-07
4.1286E-08	-3.5890E-08	-6.8472E-07	1.2248E-06
3.8964E-08	-2.1016E-08	-5.3684E-07	1.2306E-06
5.3512E-09	-3.1757E-08	-3.1010E-07	1.3259E-06
-1.7077E-08	-7.5018E-08	-9.4855E-08	1.0242E-06
-6.7778E-09	-3.2482E-08	-1.8196E-07	8.3883E-07
-2.4225E-08	-3.1534E-08	-3.5868E-07	7.0597E-07
-1.6644E-08	4.5568E-08	-4.7493E-07	9.0450E-07
-2.5189E-08	7.8580E-09	-3.5954E-07	8.8575E-07
-2.4610E-08	2.5948E-08	-4.4345E-07	9.1073E-07
-2.2834E-09	3.1025E-09	-4.4219E-07	1.0272E-06
8.8481E-09	7.7090E-09	-2.6560E-07	1.2415E-06
3.0887E-09	2.6111E-08	1.0388E-07	1.1163E-06
2.6111E-08	-8.9071E-09	2.2795E-07	8.2551E-07
-1.7910E-08	-1.0871E-08	1.0939E-07	4.7999E-07
-1.4564E-08	-2.3052E-08	-1.9238E-07	5.6513E-07
-3.1883E-09	-2.2988E-08	2.3901E-08	7.1172E-07
2.1922E-08	-2.5470E-08	2.1283E-07	3.6057E-07
-8.6677E-09	1.5706E-08	-1.3566E-07	6.3542E-10
-4.5220E-08	-2.6803E-08	-4.2669E-07	1.9623E-07
-3.2241E-09	-2.6120E-09	-4.3168E-07	1.1010E-07
9.5076E-10	3.1383E-08	-8.1443E-07	2.1262E-07
3.1114E-09	2.7035E-08	-7.9332E-07	4.8821E-07
7.4449E-09	2.8739E-08	-9.0536E-07	6.3592E-07
1.8942E-08	2.8494E-08	-6.7118E-07	1.0895E-06
4.1241E-08	2.2723E-08	-9.2319E-08	9.0887E-07
5.2663E-08	3.2245E-08	-1.6742E-07	4.3118E-07
3.7682E-08	9.2371E-09	-3.6687E-07	4.3752E-07
5.5189E-08	2.1513E-08	-3.8930E-07	3.4738E-07
1.8143E-08	-2.5089E-08	-5.5027E-07	3.8583E-07
3.5081E-08	3.1149E-09	-4.7817E-07	3.8069E-07
1.4326E-08	-1.1532E-08	-6.3499E-07	1.8202E-07
3.1099E-08	-1.6059E-08	-1.1177E-06	3.1280E-07
-2.6844E-08	4.8727E-09	-1.0416E-06	1.1391E-06
6.3099E-09	-1.4193E-08	-6.7375E-08	9.8360E-07
1.6138E-08	-3.3378E-08	-3.0010E-07	2.2661E-07
1.4823E-08	-3.6211E-09	-5.8328E-07	3.3635E-07
-1.3381E-08	-8.2282E-09	-6.6426E-07	1.7598E-07
3.2343E-09	-1.3762E-08	-1.0287E-06	1.9881E-07
-1.2828E-08	-3.1403E-08	-1.3315E-06	5.2061E-07
5.3764E-11	-2.2809E-08	-1.1780E-06	1.0904E-06
1.2475E-08	-1.9360E-08	-6.2705E-07	1.1108E-06
-7.3615E-08	-2.8833E-08	-4.8878E-07	7.5327E-07
-1.8038E-08	7.8139E-09	-6.7986E-07	5.7961E-07
-2.2124E-08	-1.8979E-09	-7.8956E-07	6.7526E-07
-6.0329E-08	1.9539E-08	-7.3909E-07	6.4371E-07
-9.8378E-09	-1.9699E-08	-8.9339E-07	5.4390E-07
-1.6526E-08	-3.5242E-09	-1.1359E-06	7.0490E-07
-4.0318E-08	2.3658E-08	-1.0500E-06	1.0331E-06
-2.0750E-08	-7.4815E-09	-8.2652E-07	9.5435E-07
-1.6656E-08	1.9517E-08	-1.0297E-06	9.3791E-07
-2.4981E-08	7.2650E-09	-9.5225E-07	1.2755E-06
-1.6029E-08	1.3745E-08	-5.9228E-07	1.2911E-06
-2.2223E-08	-4.7122E-09	-4.3175E-07	9.5348E-07
-2.1033E-08	1.9789E-09	-8.2676E-07	7.4162E-07
2.7883E-09	-1.4715E-08	-1.0125E-06	1.2047E-06
