jMRUI Data Textfile

Filename: Export_to_jmrui.txt

PointsInDataset: 2048
DatasetsInFile: 1
SamplingInterval: 0.250000
ZeroOrderPhase: 0E0
BeginTime: 0E0
TransmitterFrequency: 1.2326E8
MagneticField: 2.8936E0
TypeOfNucleus:  
NameOfPatient:  
DateOfExperiment:  
Spectrometer:  
AdditionalInfo: 
SignalNames:  


Signal and FFT
sig(real)	sig(imag)	fft(real)	fft(imag)
Signal 1 out of 1 in file
1.6238E-06	2.8696E-07	-1.1774E-08	6.5385E-07
1.9245E-06	-1.6261E-07	1.6410E-07	6.2434E-07
1.3338E-06	-6.9808E-07	2.8823E-07	7.8711E-07
8.8861E-07	-9.9535E-07	9.6406E-07	5.1647E-07
8.2689E-08	-9.9687E-07	6.1344E-07	-4.4085E-07
-4.0529E-07	-7.3446E-07	-2.8384E-07	-2.3139E-07
-6.5551E-07	-3.8351E-07	-4.0540E-07	5.2742E-07
-4.1696E-07	-3.9554E-08	3.2817E-07	8.9918E-07
-1.7208E-07	1.7145E-07	7.0712E-07	1.8616E-07
1.8917E-07	7.8616E-08	1.3318E-07	-7.3351E-08
3.3357E-07	-1.3689E-07	5.9713E-09	3.2955E-07
3.5787E-07	-2.8147E-07	2.9967E-07	2.4990E-07
1.6036E-07	-4.0747E-07	-3.4516E-08	8.0154E-08
-1.1757E-08	-3.7062E-07	-2.3528E-08	4.6165E-07
-2.2871E-07	-2.9531E-07	8.3317E-08	3.7240E-07
-2.6656E-07	-1.4036E-07	1.2899E-07	5.7071E-07
-2.0342E-07	-1.1859E-08	3.4029E-07	3.5116E-07
-4.4811E-08	-4.2328E-08	1.2087E-07	3.3063E-07
-7.9158E-09	-4.7539E-08	2.0880E-07	4.5119E-07
-5.8282E-08	-1.7008E-07	3.1114E-07	3.5702E-07
-1.8076E-07	-2.6335E-07	1.5146E-07	2.8837E-07
-2.8531E-07	-2.3045E-07	3.6526E-07	5.0476E-07
-3.6440E-07	-6.7801E-08	3.8464E-07	-1.2825E-07
-4.1207E-07	4.5945E-08	-3.5650E-07	2.9162E-07
-2.6819E-07	2.0032E-07	4.3247E-07	6.3239E-07
-9.4600E-08	2.2742E-07	2.1669E-07	-2.5084E-07
7.8471E-08	1.7140E-07	-5.6146E-07	2.1413E-07
1.1734E-07	5.7903E-08	-1.8876E-07	7.9409E-07
5.9877E-08	-9.1310E-08	1.0496E-07	5.2904E-07
-4.2182E-08	-8.7357E-08	-2.4379E-07	5.3147E-07
-1.6836E-07	-7.0006E-08	-1.2084E-07	1.0186E-06
-2.8361E-07	7.7644E-08	3.0206E-07	9.9057E-07
-2.4297E-07	2.0514E-07	3.8907E-07	8.9692E-07
-1.6220E-07	2.5693E-07	6.9215E-07	8.4049E-07
2.2570E-08	3.2301E-07	7.5098E-07	3.2448E-07
1.4118E-07	2.7301E-07	2.5762E-07	2.0450E-07
1.7908E-07	1.8873E-07	1.4752E-07	6.0904E-07
1.7970E-07	7.4983E-09	5.3844E-07	7.1316E-07
9.2874E-08	-1.8112E-08	6.8926E-07	3.3958E-07
1.1121E-07	2.9908E-08	4.7847E-07	9.6820E-08
4.9181E-08	4.5586E-08	1.6043E-07	7.1801E-08
8.2378E-08	6.6780E-08	5.5820E-08	3.5682E-07
1.4135E-07	3.0621E-08	2.0327E-07	3.2642E-07
1.9147E-07	1.5168E-08	1.5932E-08	2.5144E-07
1.7593E-07	-1.1962E-07	-1.8740E-07	4.6011E-07
1.4139E-07	-1.6064E-07	-3.9301E-08	8.6182E-07
7.0062E-08	-1.4872E-07	3.9371E-07	7.7221E-07
-2.2995E-08	-1.3838E-07	4.0016E-07	4.5072E-07
-8.8315E-08	-7.6332E-08	8.7710E-08	3.0394E-07
-5.7044E-08	-1.0771E-08	-9.1202E-08	7.4140E-07
6.9268E-10	3.4044E-08	3.1561E-07	7.5017E-07
3.2496E-08	4.6744E-08	1.3085E-07	6.8939E-07
4.7905E-08	2.5846E-08	4.5806E-07	8.4908E-07
-1.3750E-08	-4.8328E-08	4.1052E-07	4.4963E-07
-1.2602E-08	-4.3808E-08	2.2136E-07	6.5022E-07
-6.0831E-08	-1.3985E-07	4.5076E-07	6.7622E-07
-5.8465E-08	-2.6958E-08	5.2460E-07	3.9033E-07
-8.6030E-08	4.8821E-08	9.4151E-08	2.0904E-07
-4.6104E-08	4.9001E-08	-6.2111E-08	7.0968E-07
1.8520E-09	6.2072E-08	3.1410E-07	7.1008E-07
8.1371E-08	3.2233E-08	1.5849E-07	5.2394E-07
9.1794E-08	-3.6828E-08	3.6160E-08	7.5440E-07
4.0828E-08	-1.1192E-07	2.9494E-07	9.2698E-07
-1.0387E-08	-1.2619E-07	4.7384E-07	6.0804E-07
-1.0919E-07	-5.1960E-08	6.0062E-08	5.2495E-07
-1.5858E-07	-3.4589E-08	9.3856E-08	9.6822E-07
-1.4314E-07	3.5720E-08	4.3408E-07	8.4252E-07
-1.2186E-07	1.2433E-07	1.9437E-07	6.4370E-07
-9.3486E-08	7.8943E-08	3.1201E-08	1.0042E-06
-3.8889E-08	7.9155E-08	3.6021E-07	1.2086E-06
2.1423E-08	5.4022E-08	5.1837E-07	1.1731E-06
-3.7636E-09	5.8626E-09	8.7492E-07	1.1750E-06
-5.4633E-08	-1.8435E-08	9.8445E-07	6.5292E-07
-5.0451E-08	-3.0855E-08	6.3629E-07	5.7287E-07
-7.1333E-08	4.6453E-09	5.9802E-07	6.5421E-07
-2.1217E-08	8.2263E-08	6.1398E-07	7.1497E-07
6.2358E-09	1.0416E-07	6.1215E-07	5.8610E-07
2.6341E-08	8.1806E-08	4.5220E-07	8.5266E-07
7.2698E-08	4.0217E-08	1.0049E-06	8.4566E-07
5.2738E-08	4.0220E-09	7.7538E-07	2.4661E-07
-3.3213E-08	1.0642E-08	3.4457E-07	6.1192E-07
-5.4171E-08	2.1175E-08	7.7542E-07	8.8790E-07
-2.2731E-08	8.7670E-08	9.7429E-07	4.4454E-07
-4.2617E-09	7.3638E-08	6.4764E-07	3.6767E-07
4.6833E-08	8.9981E-08	7.3937E-07	4.7695E-07
1.2619E-07	6.4014E-08	7.5255E-07	3.4406E-07
1.3979E-07	6.0640E-08	7.6045E-07	1.9875E-07
1.2950E-07	-1.8559E-08	5.0003E-07	4.3839E-08
4.6836E-08	-8.6258E-08	3.3075E-07	1.1993E-07
-2.7317E-08	-7.9129E-08	4.5949E-08	2.4477E-07
-4.4941E-08	-7.5745E-08	1.6154E-07	6.8299E-07
-6.5084E-08	3.8561E-09	4.2843E-07	6.1347E-07
-6.8983E-08	7.0241E-08	5.3122E-07	5.9579E-07
-1.3715E-08	8.9344E-08	6.4415E-07	2.9471E-07
6.5011E-08	8.0643E-08	3.1261E-07	1.1546E-07
9.0821E-08	5.2011E-08	8.7759E-08	2.6336E-07
1.3981E-07	-8.9174E-09	-3.0034E-08	4.0611E-07
8.5842E-08	-5.5164E-08	-1.0007E-07	7.2297E-07
5.1672E-08	-8.4312E-08	2.8239E-07	9.2328E-07
-7.6357E-09	-4.2364E-08	4.2791E-07	6.0616E-07
-1.7699E-08	-7.3026E-08	2.4322E-07	4.9661E-07
1.8285E-08	-2.9205E-08	-9.4063E-09	5.8958E-07
-2.5477E-08	-2.2573E-08	9.0713E-08	9.5327E-07
-7.9388E-09	-4.0157E-09	2.5401E-07	8.1033E-07
4.9740E-09	-4.6205E-08	1.4215E-07	1.0278E-06
8.0042E-09	-3.5866E-08	5.1899E-07	1.0070E-06
-2.8192E-08	-5.8263E-08	3.2596E-07	8.1091E-07
-5.7371E-08	-9.4861E-09	3.7652E-07	1.1479E-06
-5.6200E-08	1.5879E-08	7.8507E-07	1.0168E-06
-3.7713E-08	-3.3919E-10	6.8147E-07	6.5444E-07
3.0461E-09	5.6171E-09	4.9833E-07	7.2819E-07
2.2240E-08	3.1362E-08	4.8761E-07	6.8031E-07
2.8832E-08	5.2276E-09	2.9617E-07	8.6826E-07
4.8978E-08	-4.9434E-08	6.1524E-07	1.0596E-06
4.3212E-09	-1.9237E-08	7.5237E-07	7.8903E-07
-2.9563E-08	-2.5118E-08	6.2865E-07	6.4662E-07
-5.4252E-08	-9.8558E-09	4.4780E-07	6.8755E-07
-8.3582E-08	-7.8986E-09	4.7092E-07	7.9177E-07
-6.0536E-08	2.0325E-08	3.2164E-07	8.3155E-07
-4.2229E-08	4.2806E-08	4.6629E-07	1.2477E-06
-1.8512E-08	8.7207E-08	9.2413E-07	1.0750E-06
4.8072E-08	6.5098E-08	8.2721E-07	8.2555E-07
6.2400E-08	1.7681E-08	8.0426E-07	8.6552E-07
2.3653E-08	-5.6679E-08	8.9974E-07	8.4118E-07
2.9191E-08	-4.2043E-08	9.3910E-07	6.3258E-07
3.7004E-08	-3.5452E-08	6.5759E-07	5.9650E-07
-2.3591E-08	1.5711E-08	6.9231E-07	8.9851E-07
1.2755E-08	-5.1751E-09	9.9190E-07	8.6469E-07
-8.4452E-09	-7.0973E-09	1.0317E-06	6.1648E-07
1.8917E-08	3.7839E-09	9.1851E-07	5.9301E-07
3.8283E-08	3.0738E-08	1.0414E-06	5.6286E-07
1.1291E-08	-4.0426E-09	1.0060E-06	3.4545E-07
1.0135E-08	1.0469E-08	8.6612E-07	2.2583E-07
3.2446E-08	-5.7453E-09	6.1436E-07	2.4746E-07
2.8331E-08	3.8990E-08	6.2402E-07	4.0274E-07
5.0282E-08	-5.2547E-09	4.5200E-07	3.8513E-07
4.5287E-08	1.4886E-08	5.4073E-07	9.2749E-07
7.0826E-08	3.3837E-09	1.3158E-06	7.2767E-07
3.5844E-08	-4.7067E-09	1.1977E-06	-6.5347E-08
1.1837E-08	-6.4903E-08	6.3334E-07	-1.2860E-07
5.8232E-08	-5.1685E-08	6.0362E-07	-1.9890E-08
-2.5940E-08	-5.3031E-08	2.2083E-07	-2.9810E-07
-3.0166E-08	-4.0496E-08	-3.0579E-07	2.9407E-07
-2.1254E-08	-7.9586E-09	8.6359E-08	7.1907E-07
-3.5702E-08	-7.7280E-09	1.7329E-07	6.6699E-07
-2.6717E-08	-1.4967E-08	2.0902E-07	8.3753E-07
-2.4886E-08	-6.2278E-09	4.1475E-07	1.0123E-06
-9.3589E-10	1.3695E-10	7.5990E-07	9.2637E-07
5.1588E-09	-3.4076E-08	8.5343E-07	7.1189E-07
-1.0694E-09	-2.0433E-08	9.1404E-07	4.7332E-07
5.9052E-09	-3.5036E-08	6.9456E-07	3.3803E-07
-3.8411E-08	-3.2685E-08	7.5899E-07	3.5101E-07
-1.1867E-08	-2.8990E-08	5.8516E-07	8.2283E-08
-2.5655E-08	-8.4855E-09	3.5662E-07	1.9602E-07
-2.1157E-08	1.3080E-09	2.3098E-07	2.0109E-07
7.9323E-09	6.8153E-10	7.1193E-08	4.5451E-07
-4.7817E-08	2.0757E-08	2.1182E-07	6.1463E-07
-4.5570E-09	-2.5733E-09	3.1882E-07	6.5525E-07
-9.1697E-09	-5.5641E-09	4.0640E-07	5.3306E-07
-1.9096E-09	-1.6583E-09	2.3715E-07	5.2906E-07
1.3812E-08	-7.7692E-09	3.2818E-07	6.7269E-07
2.9895E-09	3.4708E-09	3.8270E-07	5.3949E-07
3.2786E-08	-2.3372E-08	2.7874E-07	5.2436E-07
-2.0310E-08	2.4991E-08	2.1391E-07	5.1368E-07
-1.0952E-10	1.0196E-08	7.3482E-08	6.2110E-07
-2.8066E-08	1.7878E-09	1.3891E-07	7.4810E-07
-4.7614E-08	-1.4636E-08	7.4812E-08	7.4291E-07
-2.7714E-08	-5.3345E-09	4.5355E-08	9.6274E-07
-4.8341E-08	2.7854E-08	1.7538E-07	1.0693E-06
-1.7726E-08	4.2963E-08	2.8900E-07	1.1647E-06
1.4256E-08	4.8423E-08	4.3469E-07	1.1280E-06
9.0864E-09	4.3511E-08	4.1507E-07	1.1898E-06
4.2391E-08	2.1488E-08	6.8516E-07	1.3659E-06
2.1362E-08	1.4774E-08	1.1090E-06	1.1050E-06
2.3789E-08	1.2837E-08	9.5351E-07	5.4738E-07
2.5659E-08	2.4989E-08	4.9265E-07	7.4744E-07
4.3384E-08	-2.1866E-08	8.7304E-07	9.6272E-07
3.0962E-08	-2.2211E-08	8.8840E-07	5.2554E-07
1.0777E-08	-3.5604E-08	6.6445E-07	5.3608E-07
-1.3659E-08	-1.3431E-08	5.7167E-07	4.1987E-07
-7.9753E-09	-8.2201E-09	2.3258E-07	5.9443E-07
2.3967E-08	-2.7837E-08	3.9377E-07	9.2480E-07
3.0911E-08	-2.9885E-09	5.2661E-07	7.7369E-07
2.6272E-08	-3.3294E-09	2.3960E-07	8.9571E-07
2.2090E-08	-4.0098E-08	5.0545E-07	1.4387E-06
3.9925E-08	-3.5180E-08	1.2026E-06	1.2375E-06
5.0375E-09	-6.2695E-08	1.1773E-06	6.9463E-07
-1.2870E-08	-3.7841E-08	1.0719E-06	6.4178E-07
-1.4917E-08	-5.4601E-08	1.0973E-06	2.7419E-07
1.0438E-08	-1.1243E-08	4.8390E-07	1.7173E-07
-1.7104E-08	-3.0648E-08	4.1302E-07	7.2712E-07
-2.3372E-08	-6.5399E-09	7.3917E-07	7.8141E-07
-3.0356E-09	1.7589E-08	9.2577E-07	6.7617E-07
-1.3518E-08	3.5237E-09	9.8286E-07	3.2914E-07
-3.9936E-08	4.7939E-09	6.6388E-07	1.0809E-07
8.0300E-09	-4.5647E-09	3.0091E-07	2.4480E-07
-1.2184E-08	-2.4685E-08	3.4479E-07	5.4918E-07
7.7990E-09	-3.2584E-08	2.9642E-07	4.2480E-07
-1.2668E-08	-4.9820E-09	9.1416E-08	8.6736E-07
-1.5882E-08	-1.7293E-08	5.3334E-07	1.0189E-06
-3.1223E-08	5.7752E-09	5.6697E-07	1.0849E-06
-3.0780E-10	1.1322E-08	1.2129E-06	1.1526E-06
-7.8624E-10	1.2724E-09	1.4003E-06	4.1953E-07
6.0072E-09	1.0187E-09	1.1611E-06	1.1429E-07
-3.2571E-08	1.4539E-08	8.8950E-07	-2.5935E-07
-8.9484E-09	-2.3938E-08	2.6782E-07	-1.9433E-07
-1.1795E-08	1.1181E-08	1.9821E-07	2.9023E-07
