jMRUI Data Textfile

Filename: Export_to_jmrui.txt

PointsInDataset: 2048
DatasetsInFile: 1
SamplingInterval: 0.250000
ZeroOrderPhase: 0E0
BeginTime: 0E0
TransmitterFrequency: 1.2326E8
MagneticField: 2.8936E0
TypeOfNucleus:  
NameOfPatient:  
DateOfExperiment:  
Spectrometer:  
AdditionalInfo: 
SignalNames:  


Signal and FFT
sig(real)	sig(imag)	fft(real)	fft(imag)
Signal 1 out of 1 in file
1.6044E-06	2.1244E-07	-1.2890E-07	-8.3388E-08
1.3242E-06	-7.7156E-08	1.4924E-07	1.1058E-07
9.2712E-07	-4.9316E-07	3.2824E-07	8.5442E-08
6.3020E-07	-6.5475E-07	3.7135E-07	-1.6456E-07
7.8520E-08	-6.5818E-07	7.3527E-08	-3.3101E-08
-1.8956E-07	-4.0288E-07	3.2561E-07	1.0852E-07
-3.6160E-07	-1.9664E-07	2.3281E-07	-1.4500E-08
-1.6226E-07	-2.2169E-08	3.0453E-07	5.6648E-08
2.0669E-09	4.3641E-08	5.9170E-08	-2.5290E-08
2.4068E-07	8.7339E-10	7.7213E-08	4.7695E-07
2.7442E-07	-2.3057E-07	5.2106E-07	5.0018E-07
2.1108E-07	-2.4059E-07	7.2236E-07	2.8550E-07
1.5528E-07	-3.5080E-07	6.7998E-07	4.3730E-08
-1.4324E-08	-2.8485E-07	6.4204E-07	-4.8610E-08
-1.8151E-07	-2.2376E-07	3.7530E-07	-2.0414E-07
-1.3466E-07	-7.4633E-08	2.7704E-07	1.3848E-07
-8.8255E-08	1.8935E-08	4.3451E-07	7.6461E-08
1.5766E-08	1.2047E-08	4.2877E-07	2.2874E-07
6.2194E-08	-5.2597E-08	7.1558E-07	-3.9305E-08
6.3746E-08	-1.6738E-07	2.9327E-07	-2.1132E-07
-9.2968E-08	-1.7872E-07	3.0364E-07	5.3352E-08
-1.6675E-07	-1.9395E-07	3.1269E-07	-6.8969E-08
-2.5699E-07	-7.8628E-08	1.3360E-07	-1.8996E-08
-2.5001E-07	6.1476E-08	6.5568E-08	1.7861E-07
-1.6435E-07	1.1887E-07	2.2171E-07	3.1067E-07
-4.3737E-08	2.0598E-07	2.9346E-07	2.0822E-07
5.4120E-08	1.2920E-07	1.8602E-07	1.7906E-07
1.2170E-07	5.1949E-08	1.1532E-07	2.9173E-07
9.2093E-08	-4.9428E-08	1.3197E-07	3.5466E-07
-1.9131E-08	-4.9843E-08	2.8355E-08	4.4887E-07
-1.1956E-07	-7.8933E-08	5.8475E-08	7.7196E-07
-2.1624E-07	3.1557E-08	4.6947E-07	9.2687E-07
-1.7337E-07	1.3902E-07	6.2416E-07	5.8103E-07
-5.8769E-08	2.1164E-07	3.5328E-07	7.2280E-07
1.1526E-08	2.4301E-07	7.7723E-07	1.0119E-06
1.2064E-07	1.8509E-07	1.1198E-06	6.5778E-07
1.3916E-07	1.0396E-07	1.1030E-06	3.5370E-07
1.2084E-07	6.5537E-08	9.6263E-07	1.2514E-07
1.0023E-07	1.0862E-09	7.3851E-07	8.2801E-08
8.3369E-08	4.2356E-08	6.2482E-07	2.0001E-07
2.2090E-08	4.7551E-08	6.7232E-07	2.6542E-07
5.9326E-08	4.6707E-08	6.8876E-07	2.8629E-07
1.1379E-07	5.3656E-08	8.0945E-07	2.2154E-07
1.8627E-07	2.8595E-08	6.3093E-07	6.8918E-08
1.7090E-07	-3.8728E-08	5.7698E-07	3.4032E-07
1.0166E-07	-5.2406E-08	9.1405E-07	3.0033E-07
6.5013E-08	-1.1654E-07	9.5703E-07	-1.3475E-07
1.5448E-08	-8.1193E-08	3.9136E-07	-3.7294E-07
-6.2269E-08	-6.3389E-08	1.1092E-07	2.7363E-07
-3.8837E-08	1.2487E-08	7.3722E-07	3.1426E-07
8.5058E-09	4.3327E-08	4.4851E-07	-2.3504E-07
9.1291E-09	2.8137E-08	-3.3699E-08	1.9001E-07
2.1553E-08	-2.7328E-08	3.0758E-07	6.1609E-07
6.4822E-08	-3.8387E-08	6.3566E-07	3.5914E-07
-4.0245E-10	-6.7121E-08	3.3409E-07	2.0504E-07
-1.6667E-08	-6.6464E-08	3.8962E-07	5.5721E-07
-5.4297E-08	-2.8111E-08	6.7579E-07	3.7077E-07
-9.7427E-08	-3.2800E-08	5.3893E-07	1.3455E-07
-2.5578E-08	1.3475E-08	1.4156E-07	7.9242E-08
9.4948E-09	-3.5951E-09	-7.1995E-08	7.3141E-07
1.8648E-08	4.3091E-08	5.6924E-07	9.4465E-07
4.0059E-08	-3.0664E-08	6.9518E-07	6.8456E-07
-8.4858E-09	-1.1468E-07	8.3963E-07	5.9404E-07
-1.2600E-08	-1.2920E-07	7.4470E-07	3.8168E-07
-7.5802E-08	-5.5484E-08	7.1428E-07	3.9564E-07
-9.0001E-08	-5.3948E-08	5.4938E-07	3.5909E-07
-1.2191E-07	-1.7443E-08	6.8923E-07	6.7244E-07
-8.9224E-08	6.1798E-08	1.0641E-06	3.3953E-07
-4.9913E-08	7.6379E-08	7.3996E-07	-9.9899E-08
-2.9916E-08	4.6856E-08	1.9111E-07	6.3955E-08
-6.0398E-08	5.6224E-08	2.1966E-07	6.5027E-07
-1.4478E-08	2.1338E-08	6.8629E-07	6.5037E-07
-3.8021E-08	2.9930E-08	6.1726E-07	3.4080E-07
-2.2689E-08	3.7428E-08	3.3197E-07	5.6116E-07
-4.1585E-08	4.9859E-08	7.3029E-07	9.2171E-07
-1.4410E-08	3.7547E-08	1.0719E-06	4.4851E-07
4.3419E-08	2.3529E-08	7.1774E-07	2.9719E-07
4.1272E-08	9.0137E-09	7.7300E-07	4.1077E-07
3.0719E-09	9.1897E-09	7.0142E-07	3.3478E-07
-6.8615E-09	-4.5033E-09	8.0505E-07	4.2688E-07
-3.5884E-08	-4.3039E-08	7.9268E-07	1.3001E-07
-2.2410E-08	5.8966E-09	4.7062E-07	2.4714E-07
-6.2417E-08	3.8309E-08	5.9980E-07	4.4483E-07
4.4472E-09	8.7903E-08	6.9668E-07	3.7477E-07
1.6773E-08	8.4176E-08	6.3769E-07	2.6835E-07
7.1978E-08	3.5586E-08	5.1378E-07	4.3934E-07
8.5021E-08	-3.9556E-09	8.1532E-07	5.0964E-07
9.8054E-08	-3.0541E-08	9.0183E-07	2.6565E-07
3.7432E-08	-4.8456E-08	9.5995E-07	-6.4794E-08
-9.7135E-09	-7.3744E-08	3.1973E-07	-4.6953E-07
-4.0303E-08	-5.7625E-08	-2.2509E-07	1.9592E-07
-1.4361E-08	-9.5948E-09	1.4872E-07	6.2720E-07
-4.1134E-08	2.4710E-08	3.5442E-07	4.7766E-07
8.2249E-09	7.8110E-08	9.4909E-08	4.8288E-07
6.5813E-08	2.4530E-08	2.6482E-07	9.6317E-07
6.6174E-08	3.5645E-08	7.2571E-07	7.0187E-07
9.0862E-08	2.3047E-08	5.0022E-07	4.6884E-07
5.4452E-08	-2.7691E-08	4.1627E-07	5.5569E-07
2.4280E-08	-3.4564E-08	4.0434E-07	6.3182E-07
8.5959E-09	-4.5829E-08	4.2064E-07	5.8524E-07
-1.4108E-08	-4.2544E-08	2.1176E-07	7.4537E-07
-1.9540E-08	-4.3464E-08	5.0613E-07	1.0560E-06
1.4754E-08	-2.6383E-08	7.7277E-07	7.4910E-07
-3.7116E-08	-3.7524E-08	4.6980E-07	5.9764E-07
-2.1147E-08	-9.9331E-09	3.7753E-07	9.1199E-07
-1.3630E-08	-2.9674E-08	5.8094E-07	1.0391E-06
-3.2748E-08	-4.8066E-08	7.6692E-07	1.0958E-06
-4.7417E-08	-2.2866E-08	9.9612E-07	9.0958E-07
-3.3356E-08	-1.5967E-08	8.7744E-07	8.0511E-07
-2.1276E-08	2.7072E-08	1.0790E-06	8.4373E-07
-3.5442E-08	1.4105E-08	1.0643E-06	4.5312E-07
1.8248E-09	8.2402E-09	7.2704E-07	5.2634E-07
1.8494E-08	1.9337E-08	9.3225E-07	7.0872E-07
-7.0578E-09	1.0161E-08	1.0662E-06	2.9033E-07
1.6343E-08	-3.1596E-08	4.5785E-07	2.7801E-08
-3.5382E-08	-2.3937E-08	1.4398E-08	6.6079E-07
-7.7097E-08	-3.8650E-08	4.7748E-07	1.1172E-06
-5.6172E-08	-8.6632E-09	6.9254E-07	8.7338E-07
-6.4617E-08	3.9201E-08	5.3134E-07	9.4607E-07
-5.3496E-09	3.4902E-08	6.1983E-07	1.1780E-06
-2.2837E-09	4.0783E-08	8.8722E-07	1.3772E-06
-1.1492E-08	5.1490E-09	1.3402E-06	1.2886E-06
1.0237E-08	2.7230E-08	1.5863E-06	9.1402E-07
2.6456E-08	3.5980E-08	1.5149E-06	4.3450E-07
2.8914E-08	3.6165E-09	1.0906E-06	3.1895E-07
1.8519E-08	-2.5344E-08	1.0370E-06	4.7173E-07
-1.2632E-08	-4.8960E-12	9.4729E-07	3.9928E-07
-1.7311E-08	-6.9311E-09	8.9753E-07	5.2668E-07
-2.4984E-08	2.9130E-08	8.9418E-07	4.0675E-07
-2.9082E-08	1.8316E-08	6.1603E-07	5.2577E-07
8.7284E-09	1.9264E-08	6.9093E-07	8.2101E-07
-8.7115E-09	2.9574E-08	8.6012E-07	9.2129E-07
-2.3561E-09	2.9597E-08	1.1038E-06	9.0966E-07
-1.1109E-08	2.2809E-08	1.1501E-06	6.7689E-07
3.4624E-08	3.1119E-08	1.0475E-06	6.9681E-07
4.0795E-08	2.4808E-09	1.1463E-06	6.7024E-07
2.9337E-08	3.7115E-09	1.0500E-06	5.9640E-07
2.1136E-08	-1.9904E-08	1.0970E-06	7.2284E-07
3.8029E-08	-2.6545E-08	1.2148E-06	5.4769E-07
3.7249E-08	-4.4280E-08	9.5745E-07	5.0910E-07
4.7025E-09	-4.8796E-08	1.0335E-06	7.7566E-07
6.7387E-09	-2.7728E-08	1.1756E-06	6.7085E-07
-2.8090E-08	6.7582E-09	1.1990E-06	7.9361E-07
-2.1640E-08	-2.8978E-09	1.5502E-06	5.6395E-07
-1.9924E-08	-8.3690E-09	1.1763E-06	2.5549E-07
8.6063E-09	5.3129E-09	1.1656E-06	6.5855E-07
-7.4378E-09	-1.4345E-08	1.5382E-06	4.1660E-07
-3.9762E-08	-3.1873E-09	1.3010E-06	6.2622E-08
7.7769E-09	6.6282E-09	9.4802E-07	1.8677E-07
-1.6171E-08	1.0531E-08	1.1117E-06	4.8154E-07
-2.2899E-09	-1.0621E-09	1.2067E-06	1.7199E-07
-2.5863E-08	-3.3775E-08	9.3232E-07	3.7218E-07
-1.5609E-08	-3.6313E-09	1.3087E-06	3.8472E-07
-3.8747E-08	1.4455E-08	1.1728E-06	1.1426E-07
-4.5132E-08	-2.7233E-09	1.1511E-06	4.2907E-08
1.0934E-08	1.9019E-09	7.7901E-07	-1.8508E-08
5.3149E-09	-1.6672E-08	8.4860E-07	3.1800E-07
2.1583E-09	1.8995E-08	8.4834E-07	2.0601E-07
-4.6928E-09	3.1209E-08	9.8134E-07	3.7781E-07
-8.0148E-09	-5.9368E-10	9.4902E-07	-4.6830E-08
2.3340E-08	3.4344E-09	5.3696E-07	2.0882E-07
9.9702E-09	6.5016E-09	6.5796E-07	3.4256E-07
3.1282E-08	-1.0639E-08	5.7530E-07	5.4390E-07
-7.1189E-09	-6.8538E-09	8.3953E-07	6.5454E-07
-2.8557E-08	-2.8035E-08	9.4240E-07	6.4610E-07
-1.2993E-08	3.1163E-08	1.1333E-06	5.1967E-07
-1.5097E-08	2.5770E-08	1.0624E-06	4.2995E-07
-6.8620E-08	6.8249E-09	1.2201E-06	3.9093E-07
-5.1023E-08	8.4284E-09	1.2253E-06	6.0047E-08
-1.7451E-08	3.2697E-08	8.1271E-07	-1.4475E-07
2.0341E-08	3.6393E-08	5.7121E-07	2.6813E-07
7.6347E-09	1.0716E-08	8.0291E-07	2.2618E-07
1.8474E-08	4.0674E-08	4.6825E-07	3.3097E-07
5.0678E-08	2.2633E-08	7.8017E-07	6.2476E-07
3.2996E-08	9.9603E-09	8.3805E-07	4.2972E-07
2.0525E-08	-9.9396E-09	8.8190E-07	4.1779E-07
5.0582E-09	-2.1905E-08	6.8373E-07	3.1673E-07
1.0168E-08	9.9399E-10	6.5289E-07	6.2023E-07
-1.2700E-08	-2.3824E-08	8.1786E-07	7.3727E-07
1.5590E-08	-2.5432E-08	1.1867E-06	7.8209E-07
4.3784E-08	-3.0256E-08	1.3225E-06	3.0756E-07
3.6225E-08	-1.6773E-09	1.0440E-06	2.0398E-07
1.6271E-08	-3.8065E-08	1.0663E-06	2.0858E-07
-7.8988E-09	-2.3769E-08	9.7835E-07	-3.6610E-08
2.3007E-08	-1.4044E-08	5.4376E-07	-1.3886E-08
1.6568E-08	-4.2434E-08	4.9846E-07	3.3968E-07
8.7085E-09	-1.8107E-08	4.9266E-07	4.2855E-07
-8.6424E-09	-3.4679E-08	6.4022E-07	7.4228E-07
-1.7613E-08	-3.6735E-08	9.2245E-07	5.8178E-07
-3.1676E-08	-3.9339E-08	8.7363E-07	5.7354E-07
-1.1074E-08	-1.4058E-08	1.0738E-06	4.6107E-07
-1.5294E-09	-3.3562E-08	9.0505E-07	2.4391E-07
-1.3637E-08	1.1852E-08	7.2609E-07	3.4150E-07
-1.6724E-08	1.6226E-08	7.4629E-07	6.0285E-07
-1.0917E-08	-1.2884E-08	1.2503E-06	5.8141E-07
-6.3279E-09	-8.5745E-10	1.1917E-06	-2.1023E-07
1.8743E-08	-5.4624E-09	2.7449E-07	-1.7686E-07
1.9889E-08	-2.6533E-09	1.5277E-07	5.6363E-07
5.4630E-10	-8.1096E-09	5.2217E-07	9.6390E-07
6.2470E-09	-5.8560E-09	1.2080E-06	8.6846E-07
-1.1582E-08	7.5286E-09	1.1432E-06	8.2262E-08
1.0273E-08	-3.1739E-09	5.5768E-07	2.0864E-07
-1.5277E-08	-1.5879E-08	6.6734E-07	3.7085E-07
2.3189E-09	-3.6903E-10	3.8411E-07	2.6348E-07
6.7278E-09	-2.0014E-08	8.6360E-08	8.4211E-07
-9.2538E-09	2.8406E-09	7.1482E-07	1.4399E-06
-2.4353E-08	1.0050E-08	1.4518E-06	1.0249E-06
