jMRUI Data Textfile

Filename: Export_to_jmrui.txt

PointsInDataset: 2048
DatasetsInFile: 1
SamplingInterval: 0.250000
ZeroOrderPhase: 0E0
BeginTime: 0E0
TransmitterFrequency: 1.2326E8
MagneticField: 2.8936E0
TypeOfNucleus:  
NameOfPatient:  
DateOfExperiment:  
Spectrometer:  
AdditionalInfo: 
SignalNames:  


Signal and FFT
sig(real)	sig(imag)	fft(real)	fft(imag)
Signal 1 out of 1 in file
1.5196E-06	1.8142E-07	2.3985E-07	8.3731E-08
9.4266E-07	-1.4321E-07	3.6628E-07	4.0074E-07
5.9721E-07	-3.7389E-07	5.1015E-07	2.0881E-07
3.8400E-07	-4.0615E-07	1.9814E-07	3.9724E-07
4.8303E-08	-3.9064E-07	4.9563E-07	7.2732E-07
-1.0062E-07	-2.3434E-07	6.3655E-07	6.4782E-07
-1.8099E-07	-1.2346E-07	7.9535E-07	7.7962E-07
-7.5330E-08	1.8801E-08	1.0460E-06	6.3395E-07
6.6585E-08	3.9461E-08	1.0371E-06	4.9400E-07
1.9855E-07	-1.7485E-08	1.0658E-06	5.4166E-07
1.9693E-07	-1.7812E-07	1.3494E-06	4.9400E-07
2.1137E-07	-2.9969E-07	1.4360E-06	6.5555E-08
9.4633E-08	-2.9378E-07	1.1710E-06	-1.3368E-07
-7.1645E-08	-2.0238E-07	1.0074E-06	-2.2656E-07
-1.6850E-07	-1.0682E-07	6.5887E-07	-2.0800E-07
-1.3949E-07	-4.9446E-09	5.1762E-07	1.3186E-07
-9.2300E-08	6.1507E-08	6.7812E-07	4.2062E-07
3.4476E-08	5.6740E-08	1.0893E-06	4.1043E-07
7.6866E-08	-1.2670E-08	1.1082E-06	-5.5607E-09
4.2203E-08	-1.4393E-07	8.9383E-07	1.3846E-09
-2.0768E-08	-1.5604E-07	8.8791E-07	-1.0250E-07
-1.3779E-07	-1.0841E-07	5.9868E-07	-5.5065E-08
-2.1796E-07	-6.6069E-08	6.3008E-07	1.2860E-07
-1.8847E-07	-1.9869E-08	5.3460E-07	1.9875E-07
-1.6017E-07	9.7646E-08	7.0035E-07	4.7394E-07
-6.0044E-08	1.7594E-07	9.1560E-07	3.4236E-07
5.9939E-08	7.9200E-08	9.7105E-07	2.9976E-07
1.2290E-07	-1.2002E-08	9.7525E-07	1.6109E-08
8.3583E-08	-6.9507E-08	5.6755E-07	1.7250E-07
-1.3743E-08	-8.8545E-08	9.2442E-07	5.5525E-07
-7.9604E-08	2.9585E-08	1.2120E-06	1.8809E-07
-1.5340E-07	1.9572E-08	1.0616E-06	-2.7823E-08
-1.6499E-07	8.4520E-08	8.7774E-07	-1.4000E-07
-1.0227E-07	1.4027E-07	6.2845E-07	3.0997E-08
2.7172E-09	2.2009E-07	8.2481E-07	3.0750E-07
9.9210E-08	1.8081E-07	1.1267E-06	3.1434E-08
1.1334E-07	1.0031E-07	7.8411E-07	-2.9981E-07
1.1863E-07	4.5807E-08	5.1087E-07	1.2645E-08
7.5704E-08	1.0613E-09	7.3962E-07	1.3365E-07
6.6542E-08	2.0028E-08	7.5372E-07	-8.6000E-08
2.2029E-08	5.2141E-08	4.5396E-07	-1.5508E-07
3.5984E-08	5.4547E-08	2.4193E-07	1.8229E-07
9.3691E-08	6.0270E-08	5.0206E-07	4.2539E-07
1.3681E-07	-8.7526E-09	5.5727E-07	2.5977E-07
1.4756E-07	-3.0681E-08	3.9457E-07	5.0529E-07
1.0584E-07	-8.8866E-08	8.2863E-07	7.3306E-07
5.1170E-08	-8.7093E-08	1.1321E-06	3.6389E-07
1.4972E-08	-8.2070E-08	1.0152E-06	-4.7481E-08
-3.8948E-08	-1.0646E-07	4.7094E-07	-1.5642E-07
-2.1556E-08	-1.0261E-08	3.3725E-07	4.0098E-07
1.0747E-09	5.6834E-08	6.6948E-07	3.6973E-07
3.3399E-08	2.4972E-08	4.5315E-07	3.7595E-07
4.2184E-09	-2.2907E-08	6.4588E-07	6.3899E-07
3.8500E-08	-3.0688E-08	8.1004E-07	5.0917E-07
2.7164E-08	-6.0225E-08	8.4356E-07	4.7552E-07
-3.1148E-08	-6.8617E-08	8.9841E-07	3.5509E-07
-7.5617E-08	-6.3667E-08	7.9743E-07	1.9136E-07
-4.4904E-08	-1.3248E-08	4.1764E-07	2.3214E-07
-5.4335E-08	-2.3912E-09	4.0500E-07	8.5623E-07
-2.6281E-08	2.1452E-08	1.0760E-06	9.0766E-07
2.9018E-08	4.5697E-08	1.1548E-06	4.9368E-07
5.0582E-08	-2.9341E-08	1.1271E-06	4.0508E-07
6.6408E-09	-5.2875E-08	1.0735E-06	1.7068E-07
1.1626E-08	-7.1484E-08	7.3978E-07	1.2358E-07
3.3269E-09	-8.2453E-08	5.7714E-07	5.1692E-07
-6.5716E-08	-3.7750E-08	9.8246E-07	6.9594E-07
-9.7130E-08	-2.3259E-08	1.0290E-06	4.7608E-07
-7.3665E-08	8.7878E-09	1.1533E-06	6.2074E-07
-6.4418E-08	4.0319E-08	1.4177E-06	3.2278E-07
-5.0946E-08	3.1959E-08	1.3372E-06	5.7901E-08
-3.4297E-08	3.7297E-08	1.1777E-06	-2.3442E-07
-4.7243E-08	2.8223E-08	7.9145E-07	-2.6632E-07
-2.7069E-08	7.5850E-08	5.6138E-07	-1.6368E-07
-2.1452E-08	5.6974E-08	3.1829E-07	1.1616E-07
8.5956E-09	4.4756E-08	4.3431E-07	4.5552E-07
2.6192E-08	3.0293E-08	6.1456E-07	5.5942E-07
9.0817E-09	4.6261E-08	7.7531E-07	6.1815E-07
6.2796E-08	3.9202E-09	1.0258E-06	5.8136E-07
4.6113E-08	-6.7826E-09	1.1243E-06	2.3543E-07
3.1944E-08	-8.6531E-09	8.0834E-07	1.0540E-07
-4.7691E-08	-2.0834E-08	7.1888E-07	2.8701E-07
-5.7286E-08	2.4091E-08	7.6504E-07	3.0815E-07
-7.1016E-08	4.5946E-08	6.6519E-07	2.9635E-07
1.0902E-08	6.2520E-08	5.9866E-07	5.8297E-07
1.7301E-08	8.0995E-08	1.0787E-06	6.6759E-07
6.4237E-08	3.6890E-08	1.0245E-06	7.4364E-08
9.5522E-08	-5.0629E-09	4.7560E-07	4.0232E-07
8.7913E-08	-4.4043E-08	1.0226E-06	7.0361E-07
7.2631E-08	-6.4383E-08	9.5150E-07	1.8277E-07
-1.1158E-08	-6.5691E-08	6.6379E-07	5.0280E-07
-3.3254E-08	-4.5102E-08	8.9346E-07	6.0103E-07
-5.3186E-08	-2.0134E-08	9.9185E-07	7.0149E-07
-2.8216E-09	3.3201E-08	1.2941E-06	5.7176E-07
1.1519E-08	2.8570E-08	1.3144E-06	4.4155E-07
2.0205E-08	2.3664E-08	1.5939E-06	1.7986E-07
7.4139E-08	3.8338E-09	1.2855E-06	-4.0655E-07
4.2224E-08	-2.6732E-08	6.8913E-07	-2.8609E-07
4.6398E-08	-6.6663E-09	6.7515E-07	1.0261E-07
2.1192E-08	-4.3061E-08	8.5083E-07	1.6504E-08
2.1724E-08	-3.2773E-08	6.4246E-07	-8.9813E-08
-1.2260E-08	-1.7823E-08	4.6867E-07	-2.3748E-08
-2.2532E-08	-1.5839E-08	2.1259E-07	2.3824E-07
-3.5798E-08	-9.0027E-09	4.9344E-07	6.3098E-07
-1.2214E-08	-3.1271E-08	6.6947E-07	3.8481E-07
-1.5843E-08	-2.0034E-08	4.6545E-07	5.6354E-07
3.2640E-09	-2.8179E-08	8.4200E-07	6.8787E-07
-2.1559E-08	-3.3153E-08	7.9433E-07	3.2001E-07
-3.9417E-08	-2.7728E-08	4.8496E-07	5.7618E-07
-4.2116E-08	-1.2950E-08	8.4367E-07	8.9267E-07
-5.3997E-08	1.6573E-08	1.1984E-06	5.8771E-07
-3.1271E-08	-1.4574E-08	1.0009E-06	2.4444E-07
-2.7629E-08	5.4102E-09	7.1764E-07	3.8327E-07
2.8202E-08	-2.4226E-09	8.1663E-07	6.3697E-07
7.4931E-09	3.7021E-08	1.1141E-06	6.5045E-07
1.3174E-09	-1.1213E-08	1.3213E-06	3.0318E-07
2.1139E-08	-2.6932E-09	1.0275E-06	-8.5792E-08
-2.2256E-08	-1.7553E-08	5.7000E-07	3.7349E-08
-6.6575E-08	9.2670E-09	5.1695E-07	4.2187E-07
-4.7951E-08	1.3672E-08	7.4107E-07	5.4786E-07
1.5373E-09	3.0823E-08	8.5761E-07	4.7942E-07
-4.0878E-08	2.9774E-08	8.7694E-07	3.4203E-07
1.3499E-08	3.5735E-08	6.3320E-07	3.0301E-07
2.6490E-08	1.4007E-08	6.0796E-07	6.6167E-07
5.0240E-08	1.8842E-08	9.6087E-07	6.7276E-07
4.6183E-08	-1.4363E-08	9.8922E-07	4.9249E-07
-1.1693E-08	-3.8773E-09	1.0587E-06	3.9988E-07
-1.7254E-08	-2.2311E-08	9.0071E-07	1.5861E-07
-4.4173E-08	1.7815E-08	6.5959E-07	3.1081E-07
-3.8416E-08	-6.9974E-09	7.6675E-07	4.1796E-07
-1.3435E-09	1.9920E-08	7.3181E-07	2.5158E-07
-1.3871E-08	4.1125E-08	3.5940E-07	3.4298E-07
-7.5794E-09	1.0769E-08	4.4309E-07	8.8003E-07
-1.4577E-08	3.8509E-08	9.1110E-07	7.6789E-07
-7.6217E-10	3.9958E-08	6.8651E-07	5.0684E-07
4.0812E-08	6.3384E-08	5.0658E-07	8.2904E-07
1.9236E-08	3.2048E-08	7.4156E-07	1.0919E-06
2.0821E-08	-4.0026E-09	1.0037E-06	1.1612E-06
1.8588E-08	6.9057E-09	1.3848E-06	1.1351E-06
1.1633E-08	-2.7397E-08	1.6496E-06	7.0508E-07
1.2130E-08	-2.7472E-08	1.4717E-06	3.4708E-07
-2.2835E-08	-3.7411E-08	1.2150E-06	2.0696E-07
3.2092E-08	-1.9303E-08	9.2885E-07	3.4350E-07
-1.6683E-08	7.4616E-09	9.9186E-07	5.8373E-07
3.5781E-09	5.6383E-09	1.1021E-06	6.0111E-07
-1.5444E-09	3.7931E-09	1.1749E-06	6.5559E-07
-2.7157E-08	8.1775E-09	1.4159E-06	6.7116E-07
-2.1951E-08	-5.5769E-08	1.6461E-06	3.2129E-07
-2.2694E-08	-2.6150E-08	1.3771E-06	-4.4192E-08
-1.4187E-08	-2.2477E-08	1.0984E-06	2.5016E-08
-1.0826E-09	-2.6055E-08	1.0706E-06	1.0683E-07
-1.4244E-08	-6.9446E-09	1.0588E-06	3.1166E-08
-7.1687E-09	-1.5558E-08	8.2975E-07	-6.1741E-09
-5.9552E-09	7.2965E-09	7.5828E-07	2.4457E-07
-1.0873E-08	1.1539E-08	9.2769E-07	2.0694E-07
-1.8990E-08	1.7318E-08	6.9714E-07	5.0107E-08
-1.3128E-08	-1.2039E-08	4.2153E-07	3.9452E-07
-2.3526E-08	4.8058E-09	7.0604E-07	7.8746E-07
-3.3996E-08	2.3551E-08	1.0576E-06	7.0344E-07
-2.0198E-08	1.4311E-08	1.2025E-06	5.3477E-07
-1.6907E-08	5.0435E-10	1.1720E-06	2.6147E-07
9.7185E-10	-9.9823E-09	9.4538E-07	3.4744E-07
1.8970E-08	-3.5367E-08	1.2028E-06	4.1945E-07
2.7279E-09	-7.0646E-09	1.2076E-06	1.1583E-07
1.6399E-08	3.3945E-09	1.1024E-06	-3.8384E-08
1.0346E-08	-3.2456E-08	7.0228E-07	-2.0304E-07
-1.6113E-08	1.8496E-09	4.6768E-07	2.7382E-07
-1.2393E-08	-2.3097E-08	7.4755E-07	3.4314E-07
-3.2855E-08	2.9450E-08	6.4037E-07	3.5862E-07
-1.5503E-08	4.3461E-08	8.1509E-07	4.8883E-07
7.8540E-10	3.0657E-08	9.1109E-07	3.3390E-07
-1.0003E-08	5.3642E-08	8.2342E-07	1.6587E-07
-1.4981E-08	5.7215E-08	5.2354E-07	2.6742E-07
1.7163E-09	-1.1902E-08	7.5435E-07	5.6354E-07
3.4781E-08	8.2311E-09	8.6895E-07	1.4213E-07
9.6812E-09	2.9448E-09	3.2559E-07	1.8565E-07
2.8840E-08	-8.9371E-09	3.2258E-07	6.4532E-07
3.2363E-09	-1.4675E-08	4.9774E-07	8.0560E-07
-2.0447E-08	-1.3718E-08	6.6123E-07	9.2798E-07
2.1288E-08	-1.8700E-08	9.0478E-07	1.0157E-06
-3.3434E-08	-6.0689E-09	1.2997E-06	8.3453E-07
1.0117E-08	1.5613E-08	1.2403E-06	3.3193E-07
1.7502E-08	-1.0774E-08	8.3723E-07	3.0169E-07
3.3996E-08	-8.0361E-09	7.6541E-07	6.0720E-07
3.6902E-08	-3.0970E-08	1.0868E-06	6.9094E-07
1.0260E-08	-1.4707E-08	1.2112E-06	3.8313E-07
4.4446E-10	-5.1846E-08	1.1197E-06	1.2666E-07
-1.2258E-08	-4.4567E-08	7.1066E-07	-1.1948E-07
-1.0702E-09	2.4760E-09	2.8657E-07	2.6425E-07
1.9562E-10	-2.1681E-08	4.1925E-07	5.3547E-07
-3.7296E-08	6.8432E-10	3.0258E-07	6.1830E-07
-9.0916E-09	-2.4430E-08	3.0851E-07	1.1266E-06
6.0729E-09	-7.2236E-09	1.0311E-06	1.3580E-06
-1.2102E-08	1.3576E-08	1.3071E-06	6.6731E-07
-5.2829E-09	1.2440E-08	8.4785E-07	5.9958E-07
-1.2205E-08	1.1859E-08	9.3096E-07	7.7845E-07
-1.2878E-08	1.2323E-08	9.4148E-07	8.1253E-07
-7.8412E-09	-1.3025E-09	1.1825E-06	8.2628E-07
-1.2650E-08	-1.1585E-08	1.1805E-06	5.8309E-07
-2.2259E-08	-1.9226E-09	1.2021E-06	5.4379E-07
-8.4153E-09	2.0617E-08	1.0748E-06	1.3829E-07
-3.2284E-09	3.2082E-08	3.6073E-07	3.2863E-07
-1.9394E-08	1.8470E-08	5.3568E-07	1.0648E-06
1.4446E-08	5.7248E-09	8.7584E-07	9.8357E-07
1.6359E-08	3.0192E-09	8.8182E-07	1.2605E-06
-1.8052E-08	-7.0084E-09	1.5032E-06	1.3225E-06
-2.3766E-08	1.7885E-08	1.8353E-06	9.1164E-07
1.9318E-09	-9.0666E-09	1.9000E-06	3.0859E-07
