jMRUI Data Textfile

Filename: Export_to_jmrui.txt

PointsInDataset: 2048
DatasetsInFile: 1
SamplingInterval: 0.250000
ZeroOrderPhase: 0E0
BeginTime: 0E0
TransmitterFrequency: 1.2326E8
MagneticField: 2.8936E0
TypeOfNucleus:  
NameOfPatient:  
DateOfExperiment:  
Spectrometer:  
AdditionalInfo: 
SignalNames:  


Signal and FFT
sig(real)	sig(imag)	fft(real)	fft(imag)
Signal 1 out of 1 in file
1.5401E-06	8.2873E-08	8.0454E-07	1.4903E-07
6.5137E-07	-8.7128E-08	1.0081E-06	1.5373E-07
4.0116E-07	-2.1891E-07	1.0143E-06	1.9245E-07
2.3848E-07	-3.0282E-07	1.1983E-06	-7.9384E-08
6.5464E-08	-3.1747E-07	6.7841E-07	-2.0856E-07
-1.3250E-07	-1.3114E-07	5.9589E-07	1.6434E-07
-1.9605E-07	3.7242E-09	5.5886E-07	3.8835E-07
-4.1363E-08	2.8411E-08	9.1539E-07	6.1450E-07
6.3718E-08	5.6767E-08	9.6087E-07	4.1314E-07
1.4837E-07	-3.0362E-08	1.0857E-06	6.0188E-07
2.0719E-07	-6.6892E-08	1.3151E-06	3.4176E-07
1.3493E-07	-2.1876E-07	1.2015E-06	1.7894E-07
3.1850E-08	-2.2674E-07	1.1026E-06	8.1448E-08
-1.7066E-08	-2.1011E-07	8.5765E-07	6.6704E-08
-1.1059E-07	-5.4807E-08	6.9615E-07	4.5330E-07
-9.4122E-08	2.4917E-08	1.1960E-06	6.3724E-07
-7.5911E-08	2.0824E-08	1.2783E-06	1.8057E-07
1.8705E-08	1.2297E-08	9.9902E-07	1.0291E-07
2.7201E-08	-2.0978E-08	7.7043E-07	2.2651E-07
1.7101E-08	-9.3248E-08	7.6074E-07	5.1138E-07
-5.2756E-08	-9.7666E-08	8.6606E-07	7.6927E-07
-1.3331E-07	-1.0837E-07	1.4327E-06	8.4258E-07
-1.7453E-07	-2.4447E-08	1.4534E-06	1.5812E-07
-1.4546E-07	3.2471E-08	9.1053E-07	2.5392E-07
-1.0387E-07	1.3456E-07	9.0711E-07	5.9932E-07
-2.0984E-08	1.5580E-07	1.1134E-06	8.3907E-07
6.8230E-08	8.9966E-08	1.4401E-06	8.2518E-07
6.3307E-08	-2.6803E-08	1.6792E-06	5.6010E-07
3.7668E-08	-7.0855E-08	1.3561E-06	2.4306E-07
-1.7438E-08	-4.4335E-08	1.2355E-06	7.8285E-07
-1.3266E-07	-6.7335E-08	1.8329E-06	7.0196E-07
-1.2422E-07	1.7958E-08	1.8015E-06	4.1544E-07
-1.5164E-07	1.1111E-07	1.9690E-06	2.8631E-07
-1.1873E-07	1.5157E-07	1.8498E-06	-1.1406E-07
-3.6657E-08	1.7783E-07	1.4834E-06	-1.5161E-07
5.0855E-08	1.3782E-07	1.3784E-06	1.7734E-07
8.0611E-08	7.5851E-08	1.8401E-06	2.2058E-07
8.8769E-08	7.4876E-08	1.8643E-06	-4.0003E-07
8.9948E-08	-3.5761E-08	1.3203E-06	-4.9474E-07
8.3675E-08	1.0223E-08	1.2120E-06	-2.8719E-07
5.8158E-09	1.7841E-08	1.1067E-06	-2.7922E-07
3.0711E-08	4.9599E-08	1.0455E-06	-1.5077E-07
7.4787E-08	3.9826E-08	1.0045E-06	-1.7224E-07
6.0438E-08	1.0417E-08	8.1995E-07	-1.2467E-07
1.0917E-07	1.4546E-08	5.8321E-07	1.5937E-07
8.4546E-08	-4.8079E-08	8.5280E-07	6.5200E-07
3.3299E-08	-5.9542E-08	1.2176E-06	4.6181E-07
4.0393E-09	-5.6440E-08	1.0905E-06	4.8495E-07
3.6212E-09	-3.2260E-08	1.2883E-06	6.1986E-07
-1.6888E-08	7.1124E-09	1.4552E-06	6.6002E-07
8.9716E-09	-5.2417E-09	1.8293E-06	5.7702E-07
-1.1536E-08	9.2874E-09	1.9899E-06	1.4607E-07
5.9445E-08	2.0263E-09	1.7423E-06	-2.2335E-07
1.0800E-07	-1.3277E-08	1.4301E-06	-1.1512E-07
4.6160E-08	-4.7275E-08	1.5319E-06	-6.2877E-08
-8.0645E-09	-3.7170E-08	1.4255E-06	-1.5857E-07
-2.8560E-08	-8.1133E-08	1.3618E-06	-1.2961E-07
-3.6211E-08	-3.7603E-08	1.2618E-06	1.6556E-08
-4.6947E-08	2.3424E-08	1.6014E-06	1.3007E-07
-2.9683E-08	-1.2096E-08	1.7321E-06	-2.6204E-07
1.5927E-08	-2.6367E-08	1.5728E-06	-5.7926E-07
3.7849E-08	6.7348E-09	1.0238E-06	-7.0246E-07
2.7314E-08	-3.2724E-08	8.9524E-07	-1.3963E-07
5.3832E-08	-3.7950E-08	1.2658E-06	-2.4366E-07
-9.0646E-09	-8.2021E-08	1.0362E-06	-5.0314E-07
-6.3369E-08	-4.9354E-08	6.7698E-07	-4.1236E-07
-3.5279E-08	-4.6898E-08	5.9351E-07	4.1896E-08
-1.0333E-07	7.0103E-09	9.2682E-07	7.7046E-08
-6.5364E-08	-2.5329E-09	7.5767E-07	-4.1680E-08
-8.3421E-08	4.4299E-09	6.8233E-07	2.3480E-07
-8.0796E-08	3.3892E-08	8.8419E-07	4.5478E-07
-5.0728E-08	6.5610E-08	1.2096E-06	3.8034E-07
-2.0498E-08	7.2348E-08	1.2090E-06	1.2269E-07
-3.8281E-08	6.3588E-08	1.1037E-06	8.1955E-08
1.4852E-08	6.2359E-08	1.0314E-06	5.6082E-08
4.5311E-09	7.8508E-08	8.8836E-07	1.0672E-07
4.0093E-08	2.3850E-08	8.6629E-07	3.3600E-07
4.6418E-08	-5.9947E-09	1.0290E-06	3.7799E-07
4.5962E-08	2.4650E-08	9.7364E-07	4.7459E-07
-5.1122E-09	-1.4470E-08	1.3428E-06	6.3764E-07
-3.4346E-08	4.0598E-10	1.4418E-06	1.7988E-07
-4.8577E-09	1.8605E-08	1.0377E-06	3.5874E-07
-6.7957E-08	4.6161E-08	1.5397E-06	7.4502E-07
-2.2976E-08	5.7351E-08	1.9615E-06	1.0847E-07
3.9368E-08	7.6893E-08	1.4824E-06	-2.5687E-07
8.6252E-08	9.0784E-09	1.2858E-06	-1.2459E-07
7.9638E-08	2.2660E-08	1.0955E-06	-2.1097E-08
8.2390E-08	5.4801E-09	1.3010E-06	3.2128E-07
3.7536E-08	-1.5315E-08	1.6532E-06	-4.0732E-08
-7.7452E-09	5.0978E-13	1.2854E-06	-3.9131E-07
-3.1418E-08	-7.9714E-09	8.7913E-07	-1.7755E-07
-1.1602E-08	-1.2090E-08	9.1233E-07	2.8230E-07
-2.5505E-08	-9.2580E-09	1.3338E-06	3.9053E-07
5.6355E-08	2.9814E-09	1.5508E-06	1.0048E-07
3.4992E-08	9.6184E-09	1.4008E-06	-1.3905E-07
3.0647E-08	3.6159E-08	1.2959E-06	-6.1213E-08
7.6110E-09	-1.1904E-08	1.3724E-06	-1.6452E-07
2.8921E-08	-2.4619E-08	1.1993E-06	-2.5277E-07
-3.0804E-09	-4.1169E-08	1.1406E-06	-2.4911E-07
8.9132E-09	-2.2560E-08	8.5508E-07	-2.4524E-07
2.2883E-09	-3.1748E-08	8.6624E-07	2.6677E-07
-8.3169E-09	-4.2338E-08	1.4673E-06	1.3353E-07
-1.6520E-08	-1.9702E-08	1.1935E-06	-4.4558E-07
-5.1805E-09	-1.6698E-08	6.8720E-07	-1.9462E-07
-1.7167E-08	-4.2172E-08	7.1372E-07	2.6306E-07
-9.2342E-09	-5.1651E-08	1.1848E-06	4.5265E-07
-2.5350E-08	-7.4024E-08	1.3477E-06	-1.5756E-08
-3.7619E-08	6.1992E-09	1.0190E-06	4.1707E-08
-3.8708E-08	-1.2569E-08	1.1871E-06	1.3326E-07
-6.6633E-08	-4.4997E-09	1.1582E-06	1.5035E-07
-2.7859E-08	-1.3734E-08	1.4863E-06	6.8633E-08
5.3068E-09	9.9243E-09	1.2288E-06	-3.8255E-07
-9.9099E-09	1.3586E-08	9.1720E-07	-1.1783E-07
-2.6487E-08	-3.4210E-08	1.0265E-06	1.5486E-08
1.6279E-08	-2.6526E-08	1.1656E-06	1.8733E-08
-2.4133E-08	-1.6862E-09	1.1269E-06	-2.9188E-07
-3.7572E-08	-2.6079E-08	6.4453E-07	-1.4274E-07
-2.5338E-08	-1.2857E-08	8.5657E-07	4.2813E-07
-1.7295E-08	2.4014E-09	1.4737E-06	2.1856E-07
-2.2176E-08	2.0555E-08	1.3010E-06	-4.2542E-07
-1.0298E-08	3.4563E-08	7.2196E-07	-2.9477E-07
2.6617E-09	4.9199E-08	8.5080E-07	6.1959E-08
-6.4819E-09	2.1617E-08	8.9717E-07	-1.2787E-07
1.6701E-08	2.6129E-08	6.5804E-07	5.0961E-08
2.4415E-08	-3.0879E-09	8.6806E-07	2.2809E-07
1.5853E-08	-2.4733E-09	9.0632E-07	1.1403E-07
2.8366E-08	-1.7811E-08	8.5963E-07	1.5188E-07
1.2777E-10	-2.2213E-08	8.7566E-07	2.0644E-07
-3.3766E-08	-6.1184E-09	8.8535E-07	1.8470E-07
-3.0892E-08	6.7237E-09	7.3726E-07	3.9877E-07
-3.1304E-08	2.3972E-08	1.2632E-06	7.2929E-07
1.6919E-08	-5.9970E-09	1.7272E-06	7.0759E-08
-8.0101E-09	4.3303E-08	1.2780E-06	-4.4710E-07
2.4612E-08	1.1590E-08	8.0620E-07	-4.2129E-07
1.4130E-08	1.1128E-08	4.7770E-07	-1.4710E-07
3.3776E-08	3.5365E-09	4.4476E-07	3.0518E-07
2.4005E-08	-2.6971E-09	8.4143E-07	5.7590E-07
1.8206E-08	-1.2982E-08	1.1741E-06	2.9743E-07
2.7480E-08	-7.2916E-09	1.0479E-06	-4.2131E-08
6.7265E-09	-3.5051E-09	6.0650E-07	-1.3983E-07
-6.0785E-09	-2.0262E-08	2.4535E-07	4.0376E-07
1.0673E-08	-2.2458E-08	6.5035E-07	9.1356E-07
1.6931E-08	-7.8531E-09	1.0525E-06	9.1433E-07
5.1553E-09	-8.7098E-09	1.4355E-06	8.0404E-07
-7.5430E-09	-8.8410E-09	1.5121E-06	3.6231E-07
3.6839E-09	-3.6062E-08	1.3243E-06	4.2527E-07
-1.4906E-08	-9.9948E-09	1.7265E-06	3.3380E-07
-8.4355E-09	-1.3557E-08	1.5839E-06	-2.3201E-07
-2.3395E-08	-4.4152E-09	1.2402E-06	-2.4374E-07
-4.2755E-08	-9.6855E-09	1.1104E-06	-3.2288E-07
-1.9195E-08	-8.5516E-09	7.6534E-07	-2.7913E-07
-9.7286E-09	-4.5129E-09	6.2646E-07	1.4427E-08
-2.4114E-08	-1.6496E-08	6.8217E-07	1.9743E-07
-1.7094E-08	-8.6819E-09	7.2459E-07	3.2153E-07
1.3545E-08	1.5079E-08	8.0914E-07	4.1428E-07
-2.2457E-08	8.8562E-10	8.8488E-07	5.6287E-07
1.4283E-08	2.0743E-10	1.2438E-06	5.8674E-07
3.4595E-09	-4.2000E-09	1.3287E-06	2.7518E-07
-4.6840E-09	3.3441E-09	1.3092E-06	1.6831E-07
-2.4674E-09	1.6231E-08	1.1926E-06	-7.4427E-08
2.1789E-09	1.1094E-08	9.0899E-07	-5.9520E-09
1.7659E-08	8.8162E-09	8.9330E-07	2.2486E-07
5.6762E-09	-1.7183E-08	1.1646E-06	1.9553E-07
-6.1748E-09	-1.0885E-08	9.0784E-07	-1.0052E-07
-2.3181E-08	-2.3289E-08	8.4566E-07	3.2169E-07
-2.6354E-09	-1.0096E-08	1.1447E-06	-2.9937E-08
-2.5986E-08	2.8314E-09	5.8121E-07	-1.0308E-07
-2.6188E-08	3.8504E-08	4.4458E-07	3.1265E-07
-2.3735E-08	6.9238E-08	6.3648E-07	8.3786E-07
-6.3430E-08	3.6607E-08	1.4876E-06	6.6369E-07
1.4166E-08	1.8227E-08	1.2488E-06	-1.5317E-07
3.8012E-09	-1.1268E-08	7.2343E-07	-5.0917E-08
2.7679E-08	4.5606E-08	5.0593E-07	1.7674E-07
4.4845E-08	-4.5137E-10	5.3415E-07	6.2620E-07
6.7383E-08	3.6478E-10	1.0278E-06	6.9348E-07
4.3670E-08	-3.2610E-08	1.0825E-06	1.6416E-07
1.3570E-08	8.8592E-10	4.0507E-07	1.4828E-07
1.8534E-08	-1.6681E-09	3.0207E-07	9.1777E-07
2.9074E-11	3.4536E-09	8.6439E-07	1.2229E-06
6.0732E-09	-7.5864E-09	1.2584E-06	1.1420E-06
3.1520E-08	-2.9053E-08	1.6181E-06	9.1237E-07
-1.4545E-08	-2.0320E-08	1.6513E-06	4.5135E-07
1.8608E-08	1.5159E-08	1.4323E-06	2.8965E-07
7.2825E-09	6.2957E-09	1.3171E-06	1.7869E-07
-2.0744E-09	-5.5026E-10	1.0308E-06	1.5951E-07
1.6520E-08	-1.7733E-08	8.3756E-07	4.2158E-07
-1.1532E-08	-4.3250E-08	9.4665E-07	7.7372E-07
-8.8655E-09	-3.5410E-08	1.3248E-06	9.0142E-07
-1.9479E-08	-3.6041E-08	1.7023E-06	6.4556E-07
-1.7979E-08	-1.8515E-08	1.5292E-06	2.0020E-07
-1.4885E-08	-1.3584E-08	1.3447E-06	4.7514E-07
-2.1573E-08	1.2480E-08	1.7639E-06	2.5946E-07
7.1829E-09	3.1365E-08	1.4223E-06	-1.0546E-07
-1.3031E-08	-2.1786E-09	1.2960E-06	-4.3633E-08
8.8476E-09	2.8826E-09	1.0251E-06	-9.8382E-08
-1.8575E-08	-4.8934E-09	9.8243E-07	1.8209E-07
2.2723E-08	-1.7984E-08	1.0456E-06	1.0913E-07
-7.1618E-10	-1.6398E-08	8.7998E-07	1.0644E-07
1.4299E-08	-2.5316E-08	6.8236E-07	3.0700E-07
-6.0696E-09	1.7527E-08	8.5546E-07	6.5168E-07
-6.5361E-09	9.1820E-09	1.0586E-06	5.7080E-07
2.8992E-09	-6.9064E-09	1.0685E-06	6.4338E-07
-1.9651E-08	2.9046E-09	1.2406E-06	6.4760E-07
-1.0944E-08	7.7027E-10	1.3718E-06	6.0721E-07
3.0199E-08	7.7062E-09	1.4710E-06	3.4020E-07
-8.6351E-09	-5.8088E-09	1.1471E-06	2.7335E-07
