jMRUI Data Textfile

Filename: Export_to_jmrui.txt

PointsInDataset: 2048
DatasetsInFile: 1
SamplingInterval: 0.250000
ZeroOrderPhase: 0E0
BeginTime: 0E0
TransmitterFrequency: 1.2326E8
MagneticField: 2.8936E0
TypeOfNucleus:  
NameOfPatient:  
DateOfExperiment:  
Spectrometer:  
AdditionalInfo: 
SignalNames:  


Signal and FFT
sig(real)	sig(imag)	fft(real)	fft(imag)
Signal 1 out of 1 in file
3.4495E-06	1.6736E-07	-2.2712E-06	7.5370E-07
5.1887E-06	-1.2042E-06	-1.7890E-06	6.3349E-07
3.3528E-06	-2.6224E-06	-2.0731E-06	1.4132E-06
1.9664E-06	-3.2750E-06	-6.1500E-07	1.0205E-06
-2.7928E-07	-3.1505E-06	-2.1414E-06	4.5377E-07
-1.6601E-06	-2.2825E-06	-1.3557E-06	2.0559E-06
-2.4697E-06	-8.9432E-07	-9.1319E-07	1.1873E-06
-1.8935E-06	3.4997E-07	-8.3665E-07	1.5363E-06
-9.4365E-07	9.8644E-07	-9.4336E-07	1.2651E-06
2.3408E-07	9.2282E-07	-1.0853E-07	1.9562E-06
9.0458E-07	4.0387E-07	1.2317E-07	1.0842E-07
1.2897E-06	-2.6579E-07	-1.5097E-06	8.3500E-07
9.0406E-07	-8.2559E-07	-4.7378E-07	1.6550E-06
4.6746E-07	-1.0902E-06	1.3112E-07	9.1374E-07
-1.5737E-07	-1.0779E-06	-5.7556E-07	-1.4037E-07
-4.9663E-07	-8.8371E-07	-1.8211E-06	9.5641E-07
-7.6516E-07	-5.9119E-07	-6.1085E-07	1.5379E-06
-7.2614E-07	-2.3212E-07	-1.1305E-06	9.4137E-07
-7.3466E-07	-6.1551E-08	-7.9527E-07	2.0196E-06
-6.0973E-07	5.4422E-08	-2.3448E-07	1.2219E-06
-6.6282E-07	1.8700E-07	-6.2782E-07	1.7037E-06
-5.5812E-07	2.8259E-07	2.8326E-07	1.1487E-06
-5.6214E-07	3.8478E-07	-1.0326E-06	8.8280E-07
-3.2276E-07	4.7148E-07	-2.7732E-07	2.3409E-06
-1.3043E-07	4.5664E-07	9.2212E-07	1.0992E-06
7.3979E-08	2.9526E-07	-1.2242E-07	1.6137E-07
1.5152E-07	5.5100E-08	-8.0506E-07	6.8297E-07
1.5794E-07	-3.9020E-08	-9.1462E-07	9.3287E-07
-3.1017E-08	-1.5348E-07	-1.1647E-06	1.5893E-06
-2.4401E-07	-1.2380E-07	-4.6571E-07	2.1558E-06
-4.2937E-07	1.3485E-07	2.8465E-07	2.0531E-06
-4.6948E-07	4.1972E-07	8.2182E-07	1.0865E-06
-3.9596E-07	6.1604E-07	-2.1317E-07	5.4261E-07
-8.3906E-08	7.0010E-07	-2.0693E-07	1.2062E-06
1.2981E-07	6.3104E-07	-1.9181E-07	6.5158E-07
3.4452E-07	4.6687E-07	-9.9508E-07	1.0954E-06
3.9831E-07	2.8534E-07	-4.6326E-07	1.8099E-06
3.7393E-07	1.2743E-07	-2.3173E-07	1.4673E-06
2.7545E-07	3.8871E-08	-1.1883E-07	1.8650E-06
2.9714E-07	9.4507E-08	3.6852E-07	1.1777E-06
2.0928E-07	8.9685E-08	-4.2210E-07	1.3368E-06
3.0327E-07	4.2000E-08	1.9102E-07	1.4160E-06
3.1769E-07	-9.2365E-08	-4.9949E-07	1.4081E-06
2.7108E-07	-2.8433E-07	4.6365E-07	1.8378E-06
1.7029E-07	-3.7139E-07	-1.1925E-07	9.9119E-07
-1.7537E-08	-4.0057E-07	1.9237E-07	1.7982E-06
-2.1003E-07	-3.0503E-07	-1.4337E-07	1.0411E-06
-3.2380E-07	-1.1971E-07	3.3845E-07	2.3824E-06
-3.1481E-07	1.0551E-07	9.0439E-07	3.9283E-07
-1.4540E-07	1.9668E-07	-8.4022E-07	1.7946E-06
-6.1418E-09	2.5548E-07	1.5781E-06	1.6348E-06
1.8152E-07	1.3627E-07	-9.3030E-08	6.0009E-08
1.7188E-07	-7.0517E-08	-2.2835E-07	1.5177E-06
1.2145E-07	-2.4783E-07	8.9918E-08	1.0638E-06
-1.0434E-07	-3.2374E-07	-2.3639E-07	1.3824E-06
-3.0932E-07	-2.2495E-07	2.8810E-08	1.7436E-06
-4.2777E-07	-9.4761E-08	5.8001E-07	1.5005E-06
-3.8855E-07	1.0124E-07	1.5984E-07	1.2656E-06
-2.4762E-07	2.5457E-07	6.8334E-07	1.5646E-06
9.1879E-09	2.3484E-07	4.7429E-07	6.6980E-07
1.2927E-07	1.6725E-07	-6.1853E-08	1.2631E-06
1.7924E-07	6.2950E-09	5.6223E-07	1.2135E-06
8.0123E-08	-1.0170E-07	1.6421E-07	6.6505E-07
-4.8618E-08	-1.5935E-07	-2.2090E-07	1.1177E-06
-2.1608E-07	-1.0344E-07	-1.2758E-07	1.0684E-06
-3.0542E-07	3.9148E-08	-4.8471E-07	1.7633E-06
-2.4057E-07	1.7198E-07	6.7720E-07	1.6570E-06
-1.2504E-07	2.0940E-07	-2.5321E-07	1.1598E-06
-4.9698E-08	2.0867E-07	3.8896E-07	2.0729E-06
1.7878E-08	7.9768E-08	3.6488E-07	1.4015E-06
7.6395E-08	-1.2365E-08	8.6187E-07	1.9711E-06
-3.4534E-08	-5.8570E-08	1.0728E-06	8.3594E-07
-1.5385E-07	-4.5733E-08	6.1773E-07	7.4112E-07
-1.4006E-07	1.9368E-08	-1.8129E-07	6.6526E-07
-1.7486E-07	1.1300E-07	5.2234E-07	1.6529E-06
-9.8746E-08	1.9106E-07	2.3952E-07	9.7070E-08
6.4015E-08	1.9966E-07	-7.4747E-07	1.6353E-06
1.2648E-07	2.0673E-07	3.1505E-07	1.5795E-06
1.6482E-07	2.7275E-08	5.7744E-07	1.8027E-06
1.1085E-07	-3.5296E-08	8.2458E-07	2.5306E-07
-5.2053E-08	-3.0945E-08	-1.1256E-06	1.1126E-06
-7.8984E-08	9.2692E-09	1.6539E-07	2.3686E-06
-7.5855E-08	1.0173E-07	1.0018E-06	1.6263E-06
-7.1613E-08	1.6800E-07	5.1516E-07	7.0524E-07
5.3573E-08	1.6558E-07	3.7435E-08	1.3488E-06
1.6679E-07	1.2970E-07	1.1591E-07	1.0215E-06
1.8703E-07	4.0208E-08	-1.9285E-08	1.9388E-06
1.5579E-07	-1.3811E-07	5.6212E-07	1.0553E-06
5.3598E-08	-2.4235E-07	-2.7901E-07	2.2170E-06
-8.9514E-08	-2.2590E-07	1.7827E-06	1.5129E-06
-1.6375E-07	-1.2150E-07	1.9927E-08	5.5324E-07
-1.7434E-07	3.2356E-08	4.5340E-07	1.5980E-06
-1.2514E-07	1.3500E-07	4.3348E-07	1.2861E-06
2.8520E-08	1.9531E-07	1.0645E-06	8.8065E-07
1.3003E-07	1.7251E-07	-8.5400E-07	1.8938E-07
2.0550E-07	8.7908E-08	-5.3077E-07	2.9845E-06
2.0535E-07	-2.2540E-08	1.7465E-06	1.6319E-06
1.4938E-07	-1.3914E-07	2.5549E-08	7.3964E-07
4.1879E-08	-2.4233E-07	5.0228E-07	2.1889E-06
-5.5267E-08	-2.1510E-07	1.3301E-06	1.1427E-06
-1.0698E-07	-1.7529E-07	7.3923E-07	7.4344E-07
-1.2583E-07	-1.0426E-07	1.8239E-07	6.9054E-07
-1.5028E-07	-4.4768E-08	2.9311E-07	1.5193E-06
-9.4975E-08	-1.0048E-08	8.1284E-07	8.2087E-07
-1.2969E-07	-7.3160E-09	2.5778E-07	7.6007E-07
-1.0520E-07	-9.2628E-09	-1.1822E-07	6.1290E-07
-1.3155E-07	-2.0267E-09	-2.4027E-07	1.5956E-06
-1.3368E-07	5.2725E-08	2.4361E-07	9.8691E-07
-1.1009E-07	9.2050E-08	-2.8403E-07	1.9234E-06
-3.5151E-08	1.4732E-07	1.2207E-06	1.2077E-06
5.5646E-08	1.0135E-07	-3.3661E-07	5.1877E-07
1.5217E-07	6.0607E-08	-2.8068E-07	1.6410E-06
1.4145E-07	-3.1136E-08	1.9416E-07	1.7428E-06
6.3255E-08	-1.0082E-07	4.1442E-07	1.3374E-06
-1.1179E-08	-1.7019E-07	3.0482E-07	1.5393E-06
-1.0298E-07	-1.3546E-07	4.3884E-07	7.3383E-07
-1.9642E-07	-4.8200E-08	-6.5756E-07	1.5348E-06
-1.4371E-07	5.3307E-08	5.6246E-07	1.6089E-06
-9.2767E-08	6.9353E-08	-2.8208E-07	1.2488E-06
2.9687E-08	1.2259E-07	1.4219E-07	1.5638E-06
7.5816E-08	8.0169E-08	-6.6058E-07	1.6110E-06
1.6274E-07	6.8919E-09	1.3433E-07	2.5969E-06
1.5083E-07	-4.0886E-08	4.3755E-07	2.1679E-06
8.4385E-08	-8.8512E-08	1.1700E-06	2.4331E-06
-1.7880E-08	-1.2796E-07	1.6153E-06	7.9199E-07
-5.2019E-08	-7.5135E-08	-4.6481E-07	4.1954E-07
-1.0946E-07	-9.9745E-09	-4.4262E-07	2.4949E-06
-4.7972E-08	5.9936E-08	9.2500E-07	2.1759E-06
1.2935E-08	6.6236E-08	1.1554E-06	1.6341E-06
3.0978E-08	6.6180E-08	2.9261E-07	6.2477E-07
3.2564E-08	6.2093E-08	-6.2284E-08	2.5527E-06
1.0636E-07	-7.7851E-09	1.5422E-06	1.0516E-06
3.4086E-08	-6.8811E-08	-5.2708E-07	1.5182E-06
5.5782E-08	-3.2578E-08	1.1943E-06	1.9999E-06
1.7718E-08	-2.4973E-08	4.5139E-07	1.3525E-06
1.8545E-08	-3.4368E-08	1.0885E-06	9.7197E-07
6.7067E-08	-3.9072E-08	-9.8427E-07	1.0695E-06
8.0349E-08	-1.0031E-08	5.4236E-07	2.8521E-06
7.6355E-08	-6.7226E-08	7.4219E-07	1.6218E-06
9.7277E-08	-9.9823E-08	1.0142E-06	2.0043E-06
6.0026E-08	-9.2632E-08	8.7648E-07	1.1720E-06
-3.8964E-08	-1.3914E-07	5.2419E-07	1.5265E-06
-7.6240E-08	-1.1643E-07	8.5660E-07	1.7247E-06
-8.4505E-08	-4.0455E-08	1.1392E-06	7.3459E-07
-7.8777E-08	-3.6876E-08	-5.1297E-07	1.0513E-06
-6.8672E-08	6.0368E-08	3.7716E-07	2.0944E-06
-4.5151E-08	4.1779E-08	2.2363E-07	1.9371E-06
3.9579E-08	-7.5091E-09	1.2578E-06	2.2837E-06
6.6462E-08	-2.2146E-08	1.0437E-06	1.4463E-06
7.4971E-08	-7.6350E-08	1.5314E-06	1.6906E-06
3.3594E-08	-8.2536E-08	1.5336E-06	4.5571E-07
1.2430E-09	-1.2009E-07	2.8153E-07	1.3551E-08
-5.8683E-08	-9.4526E-08	-5.0755E-07	1.6061E-06
-7.2207E-08	-2.3444E-08	1.4085E-06	1.3886E-06
-5.9564E-08	2.8158E-09	-9.6083E-08	3.0385E-07
-3.7472E-08	1.8509E-08	1.0527E-07	1.3541E-06
-4.1651E-08	2.7319E-08	-4.7905E-07	1.1298E-06
6.1831E-09	5.0733E-08	2.1989E-07	2.2365E-06
3.7901E-08	-2.0842E-08	5.3948E-07	1.4559E-06
5.3822E-08	1.9354E-08	5.6124E-07	1.4577E-06
-8.5300E-09	-2.3677E-08	1.6308E-07	1.2230E-06
4.4113E-08	-4.2891E-09	2.2345E-07	1.3847E-06
5.1012E-08	-7.2384E-08	-2.9525E-07	1.9005E-06
-5.7769E-10	-8.2741E-08	1.1925E-06	1.9743E-06
-3.0437E-08	-9.0365E-08	1.5460E-07	1.0567E-06
-3.3518E-08	-4.6579E-08	1.0354E-06	1.6806E-06
-5.1358E-08	-7.4987E-09	-8.9310E-08	3.2511E-07
-4.0397E-08	-1.1632E-09	-4.3326E-08	1.6959E-06
-3.3509E-08	8.2380E-09	-7.3961E-07	7.3650E-07
6.5382E-11	1.6797E-08	-9.7253E-07	3.1531E-06
1.5521E-08	6.5819E-08	1.1138E-06	2.8325E-06
5.9307E-08	3.8745E-08	1.5970E-06	1.3960E-06
9.7733E-08	9.0892E-09	-4.5392E-07	3.5452E-07
6.6607E-08	9.4808E-09	-5.5326E-07	2.8643E-06
6.8941E-08	-3.5081E-08	7.3212E-07	2.0599E-06
7.4448E-08	-4.7854E-08	6.3016E-07	2.2904E-06
6.4896E-08	-2.6469E-08	7.6339E-07	1.3212E-06
1.4258E-08	-3.8479E-08	1.7596E-07	1.9648E-06
7.2449E-08	-4.5846E-08	2.0912E-07	1.4962E-06
1.4106E-08	-1.3571E-08	-4.5702E-08	3.0488E-06
5.2975E-08	-4.1840E-08	1.8724E-06	2.0299E-06
5.2257E-08	-5.0857E-08	4.2317E-07	1.4305E-06
4.8765E-08	-6.9164E-08	1.0547E-06	1.9458E-06
7.3565E-08	-6.6497E-08	6.8751E-07	1.4107E-06
2.7480E-08	-9.4903E-08	8.4246E-07	1.5686E-06
7.5632E-08	-9.8104E-08	3.1801E-07	1.3892E-06
3.6031E-09	-2.9512E-08	8.9328E-07	1.9217E-06
-3.8886E-08	-8.4488E-08	5.2749E-07	7.9908E-07
9.9645E-09	-7.7323E-08	-5.1776E-08	2.1093E-06
7.4791E-09	-4.7085E-08	1.2066E-06	1.3940E-06
-3.0979E-08	-4.2608E-08	-1.2449E-07	1.1693E-06
-6.3852E-08	-5.1256E-08	3.2452E-07	1.6432E-06
-3.1173E-10	-3.4143E-08	-3.6494E-07	1.9656E-06
-3.0099E-08	-2.7223E-08	1.3288E-06	2.4042E-06
-4.1028E-08	-1.7691E-08	3.4476E-07	5.3368E-07
2.4504E-09	1.8408E-08	-3.5583E-07	2.2678E-06
-3.4593E-08	8.7026E-09	9.1305E-07	2.1203E-06
7.0660E-09	7.2088E-09	1.0720E-06	1.0605E-06
4.0325E-08	-1.5573E-08	-7.9383E-07	6.6545E-07
-5.2481E-09	6.2713E-09	-2.1147E-07	2.8457E-06
2.0690E-08	-4.1652E-08	3.2227E-07	9.3574E-07
-2.4691E-08	-2.7902E-08	-1.6375E-06	3.0036E-06
-2.8774E-09	1.2564E-08	1.6786E-06	3.5435E-06
-1.0006E-08	-1.3873E-08	6.0775E-07	1.2068E-06
-7.6776E-09	-5.1042E-09	3.5929E-07	2.8472E-06
-1.0632E-09	2.0603E-08	1.2910E-06	1.5383E-06
