jMRUI Data Textfile

Filename: Export_to_jmrui.txt

PointsInDataset: 2048
DatasetsInFile: 1
SamplingInterval: 0.250000
ZeroOrderPhase: 0E0
BeginTime: 0E0
TransmitterFrequency: 1.2326E8
MagneticField: 2.8936E0
TypeOfNucleus:  
NameOfPatient:  
DateOfExperiment:  
Spectrometer:  
AdditionalInfo: 
SignalNames:  


Signal and FFT
sig(real)	sig(imag)	fft(real)	fft(imag)
Signal 1 out of 1 in file
3.8300E-06	1.9779E-07	-3.4450E-06	1.8734E-06
6.7422E-06	-1.4599E-06	-3.3043E-06	1.2443E-06
4.4222E-06	-3.1956E-06	-3.0253E-06	1.9712E-06
2.5773E-06	-4.1146E-06	-2.1180E-06	2.2052E-06
-3.5923E-07	-4.0929E-06	-1.5062E-06	9.6226E-07
-2.1137E-06	-2.8692E-06	-2.7075E-06	1.3369E-06
-3.1175E-06	-1.1849E-06	-1.4454E-06	1.0564E-06
-2.4084E-06	4.3395E-07	-3.7431E-06	7.6726E-07
-1.2311E-06	1.2624E-06	-2.2242E-06	3.4487E-06
4.0249E-07	1.1377E-06	-1.0235E-06	1.5727E-06
1.2303E-06	4.7093E-07	-1.7352E-06	1.6855E-06
1.6273E-06	-3.9543E-07	-1.6853E-06	1.5019E-06
1.1750E-06	-1.0478E-06	-1.9153E-06	1.9427E-06
6.4480E-07	-1.2919E-06	-1.5298E-06	2.3585E-06
-2.1145E-07	-1.2806E-06	-5.8813E-07	2.1340E-06
-6.4088E-07	-1.0159E-06	-1.0223E-06	1.3083E-06
-1.0519E-06	-6.0430E-07	-9.5718E-07	1.7627E-06
-9.2923E-07	-2.9841E-07	-1.1370E-06	1.1380E-06
-8.8926E-07	-5.2302E-09	-1.5506E-06	2.1350E-06
-7.3699E-07	9.8403E-08	-1.7148E-08	2.3547E-06
-7.7869E-07	2.3420E-07	4.3774E-07	4.3837E-07
-6.4123E-07	4.0285E-07	-1.6179E-06	-1.2009E-07
-6.4953E-07	5.3394E-07	-1.8681E-06	1.3810E-06
-3.4625E-07	5.9883E-07	-1.3608E-06	1.3283E-06
-2.1883E-07	4.9647E-07	-1.6163E-06	1.3191E-06
8.1990E-08	3.5031E-07	-1.8017E-06	2.0033E-06
2.0533E-07	4.2967E-08	-7.1005E-07	2.2515E-06
2.1182E-07	-1.5938E-07	-8.2471E-07	1.3588E-06
-9.0378E-08	-2.6431E-07	-1.2027E-06	1.7298E-06
-3.4305E-07	-1.3349E-07	-8.3252E-07	2.0783E-06
-6.1859E-07	1.6869E-07	-1.7821E-07	1.5186E-06
-6.2644E-07	4.8333E-07	-1.0124E-06	1.0171E-06
-4.9165E-07	7.3959E-07	-1.0142E-06	1.6188E-06
-1.4864E-07	8.7244E-07	-9.1125E-07	1.5104E-06
1.0720E-07	7.8405E-07	-9.0315E-07	1.3426E-06
3.9191E-07	5.3311E-07	-1.5531E-06	1.6220E-06
4.2481E-07	4.0504E-07	-1.0327E-06	2.3315E-06
4.6432E-07	2.8634E-07	-5.1667E-07	2.3519E-06
3.0127E-07	1.6096E-07	-3.3358E-08	1.5691E-06
3.2018E-07	1.8676E-07	-8.5468E-07	1.9613E-06
3.1116E-07	1.5200E-07	7.2616E-07	1.3478E-06
4.3805E-07	8.9289E-08	-1.8581E-06	4.1641E-07
4.4686E-07	-1.3697E-07	-7.1639E-07	3.1520E-06
3.8510E-07	-4.0587E-07	3.0136E-07	1.0890E-06
1.6157E-07	-5.4653E-07	-9.6155E-07	1.3192E-06
-6.9707E-08	-6.0144E-07	-6.6625E-07	2.0156E-06
-3.4026E-07	-4.0122E-07	2.0777E-07	1.1183E-06
-4.0401E-07	-1.1202E-07	-2.0287E-06	1.0271E-06
-4.0762E-07	2.2254E-07	-5.2468E-07	3.0152E-06
-1.5510E-07	3.5082E-07	-7.6608E-07	1.8627E-06
7.3881E-08	3.9201E-07	7.1585E-07	3.1571E-06
3.1157E-07	1.4978E-07	2.9029E-07	5.5140E-07
3.0741E-07	-1.2108E-07	1.1512E-07	2.4580E-06
1.7995E-07	-3.4502E-07	6.3937E-07	1.0984E-07
-1.3953E-07	-4.6307E-07	-7.5155E-07	1.4854E-06
-3.9557E-07	-3.6179E-07	-2.2205E-07	4.4708E-07
-5.9114E-07	-1.1942E-07	-1.2236E-06	2.0539E-06
-5.2045E-07	1.4116E-07	3.0448E-07	1.1444E-06
-3.5633E-07	3.8800E-07	-9.7526E-07	1.4710E-06
-5.2940E-08	4.1562E-07	-1.2523E-07	1.3809E-06
1.4162E-07	3.1378E-07	-8.0081E-07	1.4626E-06
2.8873E-07	1.2749E-07	-7.6622E-07	1.8662E-06
1.8287E-07	-1.1886E-07	6.0217E-07	2.7030E-06
5.5375E-08	-2.0006E-07	5.7945E-07	-2.3761E-07
-1.9731E-07	-1.6170E-07	-1.5244E-06	2.1304E-06
-2.7638E-07	-3.0071E-08	1.3706E-06	1.0654E-06
-2.7932E-07	1.1689E-07	-1.4917E-06	3.0716E-07
-1.8688E-07	2.2195E-07	-4.9164E-07	2.0347E-06
-8.0248E-08	2.2491E-07	-1.6647E-07	1.4942E-06
1.8534E-08	1.3146E-07	9.9329E-08	8.2276E-07
3.2545E-08	-2.0887E-08	-1.0556E-06	1.0524E-06
-3.9273E-08	-2.6841E-08	-3.4793E-07	1.1577E-06
-1.4443E-07	3.0036E-09	-1.5142E-06	1.3454E-06
-2.3617E-07	5.2781E-08	-1.8043E-07	2.2769E-06
-1.8784E-07	2.1068E-07	-3.6480E-07	8.8034E-07
-2.8189E-08	2.7155E-07	-1.3097E-06	1.8265E-06
8.6338E-08	2.5714E-07	2.4330E-07	2.4412E-06
2.0188E-07	1.7661E-07	-6.1170E-08	2.9662E-07
1.8559E-07	4.7756E-08	-1.6856E-06	2.0965E-06
1.5476E-07	-4.6390E-08	4.4585E-07	1.9146E-06
-4.4256E-08	-1.2292E-07	-9.2181E-07	1.2351E-06
-5.6307E-08	-4.0165E-08	-4.1020E-07	2.0302E-06
-1.3842E-07	7.0785E-08	-3.4416E-07	2.1525E-06
-7.6181E-08	1.9936E-07	8.1492E-07	1.3521E-06
5.2749E-08	1.8652E-07	-1.1322E-06	6.1793E-07
2.0814E-07	1.7797E-07	-6.1651E-07	2.4154E-06
2.5345E-07	-4.0436E-08	2.0405E-07	1.2990E-06
1.9805E-07	-1.9470E-07	-1.1916E-06	9.3604E-07
9.6816E-08	-2.9843E-07	-1.3619E-06	3.1208E-06
-3.6786E-08	-3.0773E-07	1.2140E-06	2.5399E-06
-2.0250E-07	-1.6402E-07	2.9700E-08	1.1468E-06
-2.7251E-07	-2.2737E-08	4.1831E-07	1.7203E-06
-2.1573E-07	1.7391E-07	-1.1921E-07	7.1484E-07
1.8379E-08	2.7460E-07	-7.6031E-07	1.4786E-06
1.5097E-07	2.7356E-07	-4.9303E-07	2.1452E-06
2.8999E-07	1.5115E-07	6.4856E-07	2.2011E-06
2.9820E-07	-7.4842E-08	1.0997E-06	1.0190E-06
2.2249E-07	-2.0216E-07	1.8195E-07	-3.2403E-07
3.9483E-08	-2.8778E-07	-1.5092E-06	6.6005E-07
-6.3658E-08	-2.9855E-07	-6.2922E-07	1.2320E-06
-1.6599E-07	-2.5108E-07	-1.2765E-06	1.3291E-06
-1.5884E-07	-1.2382E-07	-2.0986E-07	1.4684E-06
-1.5150E-07	-3.9824E-08	-1.4733E-06	6.2907E-07
-1.2117E-07	-4.2509E-08	-1.6823E-06	1.9841E-06
-1.0475E-07	-5.8904E-08	-1.4408E-06	2.6947E-06
-1.2835E-07	-3.3864E-08	3.3059E-07	2.7681E-06
-1.4815E-07	-1.4731E-08	-2.9494E-07	1.1794E-06
-1.5297E-07	1.5841E-08	-6.8835E-07	1.7090E-06
-1.2502E-07	1.1426E-07	-1.3359E-06	1.8576E-06
-5.5104E-09	1.7464E-07	-2.5714E-07	2.8001E-06
4.9246E-08	1.3846E-07	-6.3759E-07	1.5081E-06
1.0981E-07	7.2624E-08	-8.6586E-07	2.9609E-06
2.0471E-07	-7.5099E-08	8.9925E-08	2.6706E-06
1.1487E-07	-1.6595E-07	7.8195E-07	2.5681E-06
-2.0684E-08	-1.9593E-07	6.4109E-07	1.0225E-06
-1.4314E-07	-1.6261E-07	-2.4457E-07	1.2464E-06
-2.2258E-07	-6.8479E-08	-7.7605E-07	1.1058E-06
-1.7563E-07	3.4012E-08	-8.3531E-07	2.0042E-06
-1.3274E-07	1.2288E-07	-1.2840E-06	1.6806E-06
7.6242E-09	1.5883E-07	-8.0880E-07	3.9222E-06
1.1965E-07	1.2773E-07	1.3871E-06	2.1681E-06
2.0756E-07	3.3565E-08	-1.8720E-07	1.7136E-06
1.6400E-07	-9.5197E-08	4.9345E-07	1.6299E-06
8.4273E-08	-2.0511E-07	-7.1158E-07	1.5255E-06
-4.7925E-08	-2.4681E-07	2.4385E-07	2.2252E-06
-1.6560E-07	-1.6929E-07	-8.7753E-08	1.0507E-06
-1.7953E-07	-6.2834E-08	-8.2788E-07	1.6615E-06
-1.3169E-07	2.9022E-08	-3.8791E-07	1.9808E-06
-5.1984E-08	1.1721E-07	-5.0703E-07	1.2599E-06
1.9350E-08	1.1917E-07	-1.8004E-06	1.9598E-06
4.2451E-08	7.0373E-08	-9.4300E-07	3.2205E-06
4.4481E-08	-4.0193E-08	-4.0818E-07	3.1684E-06
3.1540E-08	-4.4008E-08	7.9396E-07	3.0620E-06
3.7541E-08	-9.9062E-08	1.0774E-07	1.2858E-06
2.6606E-08	-7.0226E-08	-1.1233E-06	2.9992E-06
5.2994E-08	-4.7478E-08	9.3841E-07	3.1576E-06
1.3618E-07	-1.5217E-08	2.3871E-07	1.7607E-06
1.4336E-07	-2.8016E-08	-1.5487E-07	2.9251E-06
1.1982E-07	-7.2147E-08	1.2095E-06	2.6618E-06
1.2380E-07	-1.4745E-07	6.4731E-07	1.4029E-06
3.4096E-08	-1.7744E-07	-1.4440E-07	2.1634E-06
-4.6894E-08	-1.5612E-07	7.1281E-07	2.4350E-06
-1.5198E-07	-1.4033E-07	8.1647E-07	1.6038E-06
-1.0869E-07	-8.1870E-08	-1.4138E-07	1.4425E-06
-1.2484E-07	-3.1036E-08	-6.7422E-08	2.8021E-06
-4.3966E-08	3.4864E-08	1.4642E-06	2.1859E-06
1.6794E-08	1.8883E-08	7.0866E-07	1.2487E-06
7.1857E-08	4.1307E-08	7.4586E-07	1.3240E-06
1.0856E-07	-1.2676E-08	-3.7295E-08	9.5630E-07
7.3664E-08	-8.1363E-08	2.4566E-07	1.8510E-06
1.7519E-08	-1.5087E-07	5.2865E-07	7.6419E-07
1.5686E-08	-1.5304E-07	-5.8149E-07	9.8651E-07
-4.9981E-08	-1.1736E-07	-3.7817E-07	1.3970E-06
-9.6159E-08	-8.8730E-08	-6.0598E-07	1.3057E-06
-6.1117E-08	2.8801E-09	-9.4046E-07	1.6647E-06
-3.4667E-09	-2.0746E-08	-6.5243E-07	2.3544E-06
-1.5489E-09	3.6292E-08	-4.3694E-08	1.8990E-06
3.7847E-08	3.4295E-08	-7.9229E-07	1.8508E-06
1.9640E-08	3.8075E-08	-4.2136E-07	2.5278E-06
3.5415E-08	-4.8836E-08	-2.5403E-07	2.5043E-06
2.5117E-08	-6.4629E-08	6.7886E-07	2.6827E-06
5.0060E-08	-6.9960E-08	5.5825E-07	1.1337E-06
8.8401E-09	-1.2132E-07	-5.4504E-07	1.7860E-06
3.7580E-08	-1.3828E-07	8.5066E-08	1.8546E-06
4.2392E-09	-1.1244E-07	-2.9535E-07	1.7955E-06
-2.0013E-08	-9.8238E-08	-4.1439E-08	1.6767E-06
-6.7410E-08	-3.9362E-08	-7.4909E-07	1.7508E-06
-4.9108E-08	-4.5313E-08	-2.7766E-07	2.4079E-06
-7.0441E-08	3.6104E-08	1.2944E-07	2.0254E-06
-2.9343E-08	2.0583E-08	4.1065E-08	1.3142E-06
5.7784E-08	8.9418E-08	-1.3314E-06	1.4208E-06
1.2373E-07	3.5312E-08	-9.9970E-07	3.0201E-06
1.1089E-07	-1.0811E-09	2.3461E-07	2.7175E-06
1.8067E-07	-4.2551E-08	3.1643E-07	1.8711E-06
1.2851E-07	-6.7797E-08	-4.7669E-07	1.3011E-06
7.4726E-08	-7.3754E-08	-1.3822E-06	2.1653E-06
3.3429E-09	-7.5136E-08	-6.4113E-07	2.9856E-06
2.8892E-08	-5.1425E-08	-4.8134E-07	2.6754E-06
3.9199E-08	-5.2623E-08	-1.8784E-07	3.3263E-06
2.5142E-08	8.1983E-10	6.7550E-07	2.7420E-06
5.9088E-08	-6.3613E-08	6.0291E-07	2.2566E-06
8.3136E-08	-8.8111E-08	2.4898E-07	1.3831E-06
3.9715E-08	-7.1583E-08	-8.7365E-07	2.0699E-06
5.9657E-08	-7.2468E-08	-3.2287E-07	2.3885E-06
5.3673E-08	-1.3567E-07	-7.4669E-07	2.8683E-06
3.8129E-08	-7.6500E-08	4.6865E-07	3.0418E-06
-1.4223E-08	-1.0174E-07	1.6603E-07	2.4726E-06
-3.9957E-09	-6.2117E-08	7.0705E-07	2.3383E-06
-3.9350E-08	-7.3248E-08	-1.9221E-07	1.8225E-06
5.4314E-08	-7.3345E-08	1.3615E-07	2.3377E-06
4.0390E-09	-6.3219E-08	-6.4953E-07	2.1082E-06
-5.9518E-09	-6.9833E-08	4.7449E-07	3.1624E-06
-3.5736E-08	-6.6398E-08	-8.6838E-08	1.2403E-06
-3.5455E-08	-4.4341E-08	-8.6840E-07	3.7341E-06
-7.3361E-08	-3.2418E-08	1.8872E-06	2.3015E-06
-1.0547E-07	-1.3117E-08	-9.4151E-07	1.1366E-06
1.0348E-08	7.0695E-09	-1.0135E-07	3.6495E-06
1.9114E-08	-3.2692E-08	9.2958E-07	1.9317E-06
-5.1866E-10	9.0354E-09	2.6829E-08	2.2733E-06
4.7732E-08	-3.8549E-08	5.2942E-07	1.5186E-06
5.2044E-08	-4.6298E-08	-9.6021E-07	2.0131E-06
-1.1778E-08	-6.4178E-08	3.0795E-07	2.4444E-06
-1.1543E-08	-2.9850E-08	-8.0013E-07	1.7497E-06
-3.9998E-08	-3.1983E-08	-3.3027E-07	2.9096E-06
