jMRUI Data Textfile

Filename: Export_to_jmrui.txt

PointsInDataset: 2048
DatasetsInFile: 1
SamplingInterval: 0.250000
ZeroOrderPhase: 0E0
BeginTime: 0E0
TransmitterFrequency: 1.2326E8
MagneticField: 2.8936E0
TypeOfNucleus:  
NameOfPatient:  
DateOfExperiment:  
Spectrometer:  
AdditionalInfo: 
SignalNames:  


Signal and FFT
sig(real)	sig(imag)	fft(real)	fft(imag)
Signal 1 out of 1 in file
3.1134E-06	1.8792E-07	-6.3328E-07	1.5120E-06
3.8443E-06	-1.0829E-06	-3.5081E-07	1.2333E-06
2.5025E-06	-2.0234E-06	1.0652E-07	8.3584E-07
1.4137E-06	-2.4992E-06	-9.2975E-07	3.4224E-07
-2.5676E-07	-2.3516E-06	-9.8911E-07	1.8250E-06
-1.1451E-06	-1.6380E-06	9.0826E-08	1.3759E-06
-1.6999E-06	-6.2323E-07	-6.4910E-07	1.4871E-06
-1.2944E-06	2.2188E-07	5.9770E-07	1.9189E-06
-6.5256E-07	6.4834E-07	3.0258E-08	5.3326E-07
2.3482E-07	5.6055E-07	-4.0139E-07	2.0633E-06
6.8508E-07	1.9703E-07	1.1318E-06	1.3930E-06
8.6309E-07	-3.3595E-07	2.3015E-07	7.1993E-07
6.1515E-07	-6.2187E-07	2.9934E-07	1.0090E-06
2.7387E-07	-8.1883E-07	5.7180E-08	7.5109E-07
-1.4193E-07	-7.4350E-07	-4.0391E-07	9.0760E-07
-3.5781E-07	-5.3080E-07	-4.2916E-07	1.8878E-06
-5.5338E-07	-3.5885E-07	6.3183E-07	1.5650E-06
-5.3075E-07	-1.9953E-07	-1.5984E-07	1.4270E-06
-4.6766E-07	-5.1008E-08	6.7390E-07	1.9493E-06
-4.0721E-07	-1.9496E-08	4.4997E-07	1.4981E-06
-4.6323E-07	5.8589E-08	1.3875E-06	1.6403E-06
-4.4603E-07	1.3441E-07	3.0320E-07	2.3282E-07
-4.3245E-07	2.5479E-07	1.3865E-07	2.1344E-06
-2.8333E-07	3.4992E-07	1.1012E-06	9.7612E-07
-1.9627E-07	3.4053E-07	3.2671E-07	1.7080E-06
1.0969E-08	2.2498E-07	1.4371E-06	1.0300E-06
5.7920E-08	1.1598E-07	2.7410E-07	1.0218E-06
1.3135E-07	-2.9576E-08	1.0409E-06	1.3092E-06
-7.0744E-08	-9.5403E-08	6.8396E-07	9.5154E-07
-1.6612E-07	-6.8456E-08	6.8519E-07	8.6205E-07
-3.0826E-07	1.1426E-07	1.6176E-07	1.4500E-06
-3.2327E-07	2.5498E-07	1.1243E-06	1.5355E-06
-2.8618E-07	4.5030E-07	1.0102E-06	1.5583E-06
-4.3992E-08	4.5265E-07	2.1586E-06	4.6432E-07
7.9319E-08	4.4359E-07	-3.7451E-07	-1.9806E-08
2.5848E-07	3.2890E-07	1.0406E-06	2.0733E-06
2.5994E-07	1.9042E-07	1.0428E-06	-4.3366E-08
2.7642E-07	1.0402E-07	8.8853E-08	1.2951E-06
1.8286E-07	6.1602E-08	9.3924E-07	1.2090E-06
1.4799E-07	5.4387E-08	1.3793E-06	1.0966E-06
1.6854E-07	5.5332E-08	8.2349E-07	-2.7028E-07
2.4816E-07	3.8389E-08	-2.8892E-07	8.9458E-07
2.7562E-07	-4.4703E-08	2.0055E-08	1.1870E-06
2.4983E-07	-1.5786E-07	5.5745E-07	2.5824E-06
1.5563E-07	-3.0233E-07	2.3569E-06	9.0963E-07
3.7244E-08	-3.3370E-07	4.4546E-07	5.5075E-07
-1.4708E-07	-3.0279E-07	1.5271E-06	1.2204E-06
-2.7639E-07	-1.4618E-07	1.0617E-06	3.5627E-07
-1.9588E-07	5.3140E-09	1.4470E-06	3.7999E-07
-1.2706E-07	1.0723E-07	1.3424E-07	-4.9015E-07
9.8783E-09	1.2203E-07	6.7368E-08	1.2888E-06
1.4919E-07	9.5151E-08	1.0072E-06	5.1063E-07
1.0610E-07	-7.4639E-08	5.9787E-07	4.3096E-07
7.0018E-08	-2.1529E-07	2.7530E-07	-4.6834E-07
-8.6084E-08	-2.0157E-07	-1.5502E-06	7.6868E-07
-2.5950E-07	-1.8932E-07	8.3495E-08	2.3840E-06
-3.4773E-07	-5.2367E-08	8.3780E-07	1.2398E-06
-2.6595E-07	1.1908E-07	4.5332E-07	1.1040E-06
-1.6097E-07	1.8691E-07	3.4174E-07	9.4324E-07
4.0925E-09	1.8321E-07	-2.7080E-07	1.4481E-06
1.3291E-07	1.0676E-07	7.0604E-07	2.4592E-06
1.4275E-07	-2.5418E-08	1.7314E-06	1.4468E-06
8.7121E-08	-1.1762E-07	1.5862E-06	7.1189E-07
-8.9115E-09	-1.7708E-07	7.2595E-07	-4.9244E-07
-1.7807E-07	-9.9413E-08	-9.6371E-07	1.0533E-06
-2.5889E-07	2.6878E-08	7.4207E-07	1.7183E-06
-2.4562E-07	1.1580E-07	8.1049E-08	1.1566E-06
-1.2453E-07	2.0366E-07	9.3089E-07	1.8930E-06
-8.9412E-09	1.9205E-07	7.7525E-07	9.1539E-07
1.0578E-09	1.0769E-07	7.0588E-07	1.4876E-06
6.0642E-08	8.0456E-08	1.0682E-06	1.1256E-06
-1.5396E-09	-2.6962E-08	9.7513E-07	5.0709E-07
-9.6987E-08	-2.8635E-08	-2.3343E-07	8.1431E-07
-1.1286E-07	3.8909E-08	8.2586E-07	1.4074E-06
-1.1770E-07	8.8007E-08	-4.1400E-07	5.5688E-07
-8.0161E-08	1.7549E-07	1.0088E-07	2.5472E-06
-2.7395E-08	1.5999E-07	6.5678E-07	1.6182E-06
7.0541E-08	1.4529E-07	1.3673E-06	2.4453E-06
7.8704E-08	5.2574E-08	1.2949E-06	2.0944E-07
4.2529E-08	1.5888E-08	-8.7013E-09	2.0353E-06
-5.4325E-08	2.6404E-08	1.5688E-06	1.1544E-06
-5.3100E-08	4.9310E-08	1.2977E-07	1.5449E-06
-5.1586E-08	1.2632E-07	1.4352E-06	1.8176E-06
-3.8545E-08	1.8084E-07	1.2142E-06	1.3459E-06
7.2677E-08	1.8213E-07	1.2151E-06	7.0413E-07
1.6612E-07	7.0292E-08	2.2669E-07	1.5591E-06
1.7163E-07	-1.7194E-08	1.5819E-06	1.5289E-06
1.5012E-07	-1.1692E-07	7.6042E-07	1.0880E-06
4.4483E-08	-1.8117E-07	1.1737E-06	1.4709E-06
-8.0668E-08	-1.3570E-07	1.1985E-06	1.5245E-06
-1.5922E-07	-8.1692E-08	1.8950E-06	7.9793E-07
-1.8254E-07	1.4264E-08	6.9737E-07	5.5675E-07
-7.8422E-08	1.1298E-07	1.0465E-06	8.7664E-07
2.2072E-08	2.0211E-07	4.7427E-07	1.0922E-06
1.0326E-07	1.3516E-07	1.4882E-06	1.0596E-06
1.9642E-07	1.0047E-07	5.3233E-07	5.0984E-07
2.0980E-07	-1.1134E-08	9.0797E-07	6.7697E-07
1.2112E-07	-1.4884E-07	-7.5067E-07	7.9744E-07
7.1482E-08	-1.3171E-07	9.5360E-07	2.8144E-06
-2.4242E-08	-2.2480E-07	1.4282E-06	5.8081E-07
-1.1484E-07	-1.3703E-07	2.4317E-07	1.4086E-06
-1.4532E-07	-8.0293E-08	8.0019E-07	1.6861E-06
-1.1244E-07	-5.0367E-08	1.2954E-06	1.9480E-06
-7.4107E-08	-1.9767E-09	1.7701E-06	1.2312E-06
-1.0172E-07	1.3940E-08	1.8158E-06	7.5760E-07
-7.3869E-08	9.2601E-09	9.7850E-07	-1.8869E-07
-8.5443E-08	-1.0435E-08	1.2594E-07	8.2702E-07
-1.2286E-07	-8.7473E-09	5.9247E-07	1.0112E-06
-1.1221E-07	5.5275E-08	6.2973E-07	1.1182E-06
-4.8221E-08	8.0497E-08	4.3236E-07	7.3011E-07
2.8828E-08	1.1337E-07	8.9098E-08	1.6732E-06
9.3145E-08	9.8442E-08	1.0061E-06	1.4468E-06
6.3119E-08	-3.1444E-08	6.9111E-07	1.5428E-06
7.8414E-08	-7.5315E-08	1.6068E-06	7.1182E-07
-3.9504E-08	-1.1489E-07	-8.5891E-07	3.1789E-07
-6.5106E-08	-7.5530E-08	2.5079E-07	3.1979E-06
-1.4479E-07	-6.5669E-08	1.6215E-06	1.3200E-06
-1.6709E-07	4.2917E-08	9.2744E-07	1.8735E-06
-4.8378E-08	7.8363E-08	1.6071E-06	4.3583E-07
-1.5196E-08	1.2756E-07	-5.2837E-07	1.4204E-06
4.8325E-08	1.2327E-07	1.3576E-06	2.0910E-06
9.4585E-08	8.9937E-08	5.5403E-07	1.7348E-06
6.0077E-08	-1.9759E-08	2.3719E-06	1.8826E-06
7.6156E-08	-8.6777E-08	8.0081E-07	5.3259E-08
-4.6214E-09	-8.9963E-08	8.2078E-07	1.6454E-06
-3.5381E-08	-9.3127E-08	5.0531E-07	7.8781E-07
-5.9823E-08	-1.4654E-08	7.9899E-07	2.2603E-06
-9.1554E-08	3.7847E-08	1.2528E-06	1.0922E-06
-3.0044E-08	4.3663E-08	1.1634E-06	1.8770E-06
1.9537E-08	9.1917E-08	1.2680E-06	5.8413E-07
-8.5181E-09	4.2038E-08	5.9669E-07	2.1325E-06
1.9759E-08	-5.7392E-09	2.4331E-06	7.9951E-07
2.8573E-08	-2.8462E-08	1.8728E-07	2.2807E-07
-1.3513E-08	-2.2721E-08	6.1467E-07	1.5399E-06
2.7459E-08	-2.0282E-08	6.1715E-07	1.3156E-06
2.3403E-08	-7.0189E-09	1.0215E-06	1.7988E-06
5.7577E-08	-1.5296E-09	1.3810E-06	1.0969E-06
1.0432E-07	2.2974E-08	6.0217E-07	1.0227E-06
1.0602E-07	-1.7562E-08	9.3914E-07	1.7825E-06
8.1374E-08	-6.4741E-08	1.4777E-06	1.1878E-06
2.4465E-08	-7.4028E-08	1.2032E-06	7.2519E-07
-2.7925E-08	-1.1647E-07	2.2584E-07	5.0788E-07
-9.5220E-08	-8.8715E-08	2.3073E-07	1.9969E-06
-6.9610E-08	-4.6169E-08	1.1062E-06	1.2690E-06
-1.2221E-07	-1.4378E-08	4.6948E-07	1.8909E-06
-6.4786E-08	2.9097E-08	1.7838E-06	1.2375E-06
-2.4918E-08	4.9764E-08	8.1470E-08	8.3431E-07
3.4989E-08	2.8267E-08	8.2767E-07	1.9739E-06
4.5136E-08	5.8146E-09	4.3463E-07	1.4868E-06
3.2947E-08	-6.3887E-08	1.2486E-06	2.6067E-06
-1.9755E-08	-9.8170E-08	1.7374E-06	1.1920E-06
-1.0813E-08	-7.1013E-08	1.0200E-06	1.5192E-06
-4.4133E-08	-7.4708E-08	1.2559E-06	1.5231E-06
-2.4644E-08	-1.5473E-08	1.7142E-06	1.8846E-06
-8.2950E-08	-2.8088E-08	2.1267E-06	4.8861E-07
-3.9344E-08	-1.2971E-08	8.6745E-07	5.8036E-07
-2.5671E-08	3.6889E-08	9.6208E-07	5.9961E-07
1.9186E-08	5.9246E-08	4.4067E-07	1.3907E-06
2.8786E-08	7.8600E-09	1.8525E-06	6.5717E-07
-1.7338E-08	1.1184E-08	-4.4864E-07	1.2510E-08
4.9793E-08	-2.4372E-08	3.0031E-07	1.9371E-06
5.6967E-08	-2.1757E-08	6.4161E-08	9.4025E-07
2.5712E-08	-6.7105E-09	1.5809E-07	2.7107E-06
3.7498E-08	-6.5284E-08	1.6220E-06	1.8954E-06
-2.9971E-08	-6.7602E-08	1.4407E-06	1.0883E-06
-5.7189E-08	-5.5383E-08	1.5110E-07	4.6447E-07
-2.5794E-08	-4.0670E-08	-1.8773E-07	2.4154E-06
-6.9550E-08	3.9719E-09	9.9872E-07	2.1855E-06
-5.0594E-08	1.1487E-08	1.3401E-06	2.4982E-06
-4.4475E-09	5.0941E-08	1.8376E-06	1.0028E-06
2.5776E-08	3.1345E-08	3.9157E-07	1.7666E-06
5.1727E-08	5.7238E-08	1.9158E-06	1.8871E-06
9.1400E-08	1.0940E-08	1.2812E-06	1.0118E-06
6.8274E-08	1.4601E-08	1.1192E-06	9.5206E-07
1.0712E-07	-3.2279E-09	2.5389E-07	1.5126E-06
4.9972E-08	-3.2353E-08	1.4824E-06	1.9561E-06
3.2823E-08	-3.9033E-08	8.5152E-07	1.1542E-06
3.7697E-08	-3.6755E-08	1.4046E-06	2.1831E-06
5.7546E-08	-2.0573E-08	1.9595E-06	5.9118E-07
2.0355E-08	1.0246E-08	3.2310E-07	6.4520E-07
5.7505E-08	-3.6888E-08	6.7574E-07	1.5854E-06
6.7241E-08	-5.7479E-08	7.5313E-07	1.2242E-06
3.1916E-08	-3.4293E-08	5.8530E-07	1.6116E-06
5.8385E-08	-4.0479E-08	7.9171E-07	1.6653E-06
2.5847E-08	-2.1411E-08	1.2155E-06	1.7723E-06
1.7061E-09	-6.5912E-08	9.9426E-07	7.1819E-07
-2.9361E-08	-6.8594E-08	-6.9382E-08	1.6729E-06
-2.7880E-08	-5.6813E-08	8.5566E-07	1.8563E-06
-4.4331E-08	-4.4433E-08	1.8769E-07	2.0729E-06
-1.2812E-08	-4.6594E-08	1.4943E-06	2.7250E-06
-4.0641E-08	-2.1835E-08	1.5872E-06	1.4233E-06
-6.9468E-09	-4.8104E-08	9.8129E-07	1.7552E-06
-3.9277E-08	-4.3410E-08	1.5875E-06	1.8240E-06
-5.4216E-08	-8.8417E-09	1.3120E-06	1.0365E-06
-6.3462E-09	1.3069E-09	9.7082E-07	1.5676E-06
4.2872E-09	-2.4691E-08	1.0389E-06	7.5196E-07
-1.0247E-08	1.3859E-08	-3.5326E-07	2.1119E-06
-4.8109E-08	3.4617E-08	2.0465E-06	2.3707E-06
5.9719E-09	-3.0207E-08	5.1642E-07	8.3735E-07
3.1820E-08	8.1414E-09	1.1358E-06	2.6079E-06
4.3238E-08	-7.5287E-09	1.2523E-06	7.1733E-07
-6.0844E-09	1.6267E-09	-1.2217E-07	2.1067E-06
1.5854E-08	1.0468E-08	9.4426E-07	2.3903E-06
-1.1793E-08	-4.6434E-09	8.4961E-07	2.7965E-06
2.6033E-08	-1.0736E-08	2.1351E-06	2.7440E-06
2.0979E-08	-1.9594E-08	2.1646E-06	1.7375E-06
2.2134E-08	-3.1906E-08	1.8161E-06	1.3852E-06
