jMRUI Data Textfile

Filename: Export_to_jmrui.txt

PointsInDataset: 2048
DatasetsInFile: 1
SamplingInterval: 0.250000
ZeroOrderPhase: 0E0
BeginTime: 0E0
TransmitterFrequency: 1.2326E8
MagneticField: 2.8936E0
TypeOfNucleus:  
NameOfPatient:  
DateOfExperiment:  
Spectrometer:  
AdditionalInfo: 
SignalNames:  


Signal and FFT
sig(real)	sig(imag)	fft(real)	fft(imag)
Signal 1 out of 1 in file
2.0413E-06	5.0777E-09	6.4626E-07	1.7438E-06
1.2312E-06	-3.7748E-07	2.6040E-06	-2.3108E-07
8.3080E-07	-6.5583E-07	7.3718E-08	-4.6700E-07
4.7153E-07	-7.8700E-07	1.1212E-06	9.1920E-07
-1.6422E-08	-7.5702E-07	9.6537E-07	4.0827E-07
-3.4525E-07	-5.0100E-07	1.8025E-06	9.6114E-07
-4.6655E-07	-2.4098E-07	1.8212E-06	-4.0388E-07
-3.6818E-07	3.1707E-08	7.3926E-07	-3.2385E-08
-1.0022E-07	1.4401E-07	1.2112E-06	9.2481E-07
1.1137E-07	2.8429E-08	2.3011E-06	1.9127E-07
1.7733E-07	-1.5859E-07	1.3770E-06	-7.6345E-07
1.6681E-07	-3.0811E-07	6.6931E-07	-2.1706E-07
8.7092E-08	-3.5720E-07	6.5885E-07	5.5793E-07
-3.0402E-08	-3.2306E-07	1.3043E-06	6.5743E-07
-1.8574E-07	-2.0166E-07	1.5046E-06	1.0508E-06
-2.0752E-07	-1.2781E-07	3.0720E-06	-1.5127E-07
-1.4879E-07	3.8676E-09	5.8750E-07	-1.4540E-06
-1.2117E-07	-1.1167E-08	8.8774E-07	9.0027E-07
-8.2656E-08	-5.4005E-08	1.5052E-06	-4.0609E-07
-9.4462E-08	-7.0023E-08	8.0135E-07	4.9450E-07
-1.4548E-07	-1.0287E-07	1.7727E-06	2.5898E-07
-2.0557E-07	-7.1370E-08	1.6300E-06	-2.9404E-07
-2.5688E-07	-1.1078E-08	7.8640E-07	-6.5331E-07
-2.1684E-07	5.5315E-08	8.1013E-07	5.3898E-07
-1.6226E-07	9.7582E-08	1.1832E-06	-4.2837E-07
-1.0552E-07	1.0915E-07	9.0146E-08	6.5660E-07
2.4795E-09	8.9859E-08	1.6250E-06	8.3923E-07
-1.4494E-08	1.4914E-08	8.9635E-07	1.5800E-07
-4.2899E-08	-1.0828E-08	1.1386E-06	1.3421E-06
-1.1151E-07	-1.5672E-09	2.8340E-06	7.4960E-07
-1.7790E-07	3.4031E-08	1.8600E-06	-1.5425E-06
-1.2831E-07	1.2559E-07	-3.1806E-07	8.1086E-08
-1.0233E-07	1.7517E-07	1.4089E-06	1.2680E-06
-3.4132E-08	2.1057E-07	1.7186E-06	3.7884E-07
4.7292E-08	1.4978E-07	1.7314E-06	1.1100E-07
9.4004E-08	1.2511E-07	1.1125E-06	-1.6017E-08
9.2144E-08	3.8313E-08	1.3888E-06	7.5423E-07
8.0178E-08	4.0546E-08	2.2160E-06	9.8467E-08
2.0707E-08	2.5337E-08	1.1070E-06	-7.4276E-07
5.3367E-08	7.9854E-08	8.3488E-07	9.1940E-07
6.9488E-08	1.0124E-07	2.4640E-06	-4.8802E-08
1.2462E-07	6.0790E-08	6.5859E-07	-7.3137E-07
1.0757E-07	5.8990E-08	8.1743E-07	5.6799E-07
1.4603E-07	-2.2685E-08	8.7974E-07	8.9015E-07
1.3303E-07	-1.2702E-07	2.7141E-06	1.4015E-06
4.8061E-08	-1.5715E-07	2.7178E-06	-1.5320E-06
1.3504E-08	-1.8795E-07	-5.5841E-08	-7.3595E-07
-9.7370E-08	-1.1460E-07	9.6566E-07	9.9759E-07
-9.6608E-08	-1.8969E-08	1.5876E-06	5.7758E-07
-2.5728E-08	2.3804E-08	2.2588E-06	5.8046E-07
3.6669E-09	8.8779E-08	2.2399E-06	-8.5134E-07
6.3685E-08	5.1859E-08	1.1367E-06	-5.0725E-07
1.2213E-07	-2.0134E-08	1.5508E-06	-5.2052E-07
7.7988E-08	-9.2523E-08	8.8102E-07	-7.9768E-07
1.2877E-08	-1.4057E-07	2.5051E-07	-4.6122E-07
-7.9196E-08	-1.3473E-07	2.4878E-07	1.1257E-06
-1.1593E-07	-6.6654E-08	2.3781E-06	5.4230E-07
-1.1250E-07	-1.0371E-08	9.0271E-07	-9.4374E-07
-9.2157E-08	4.2022E-08	6.0822E-07	6.1953E-07
-2.0365E-08	2.0610E-08	1.5426E-06	1.8042E-07
1.6022E-08	1.0551E-09	7.9899E-07	-1.6102E-07
6.4814E-08	-2.6391E-08	1.0576E-06	8.8325E-07
4.2187E-08	-7.2096E-08	2.0261E-06	-3.7049E-07
-2.4800E-08	-9.2822E-08	-3.9701E-08	-4.7636E-07
-1.1559E-07	-8.2755E-08	6.5922E-07	1.3420E-06
-1.3518E-07	-3.3312E-08	1.6204E-06	1.0336E-06
-1.5850E-07	1.9131E-08	2.4635E-06	2.9646E-07
-1.2737E-07	7.1997E-08	1.2152E-06	-9.8799E-07
-1.0470E-07	9.1364E-08	5.8622E-07	4.8898E-07
-6.9476E-08	5.5044E-08	1.6129E-06	2.8586E-07
-6.0137E-08	5.8473E-08	1.0628E-06	-1.5030E-07
-5.9000E-08	2.3943E-08	1.0589E-06	2.5466E-07
-4.2320E-08	4.6755E-08	7.3760E-07	2.0012E-09
-2.3853E-08	3.6280E-08	9.0938E-07	1.3643E-06
-5.1851E-08	3.3757E-08	2.3301E-06	-7.1096E-08
2.4407E-08	7.9383E-08	1.5848E-07	1.2814E-07
1.7677E-08	4.6014E-08	1.8830E-06	1.2622E-06
4.3288E-08	4.1489E-08	1.5700E-06	3.4755E-07
-3.0539E-08	1.9768E-08	2.8689E-06	7.3644E-08
-2.4748E-08	1.9846E-08	4.2681E-07	-1.7182E-06
-6.4368E-08	2.4944E-08	3.9688E-07	1.4299E-06
-9.0265E-08	2.5019E-08	1.8698E-06	3.7062E-07
-6.1709E-08	1.0161E-07	2.0906E-06	3.1385E-07
6.4981E-09	1.1041E-07	1.3657E-06	-1.4675E-06
9.2359E-08	6.5150E-08	-9.1299E-09	1.7170E-07
1.0564E-07	6.3196E-08	6.2067E-07	1.7936E-07
1.1259E-07	1.1711E-08	2.9350E-07	1.4062E-06
8.7224E-08	-7.8622E-08	1.9764E-06	1.3951E-06
5.0777E-08	-6.6942E-08	2.3072E-06	4.7765E-07
-4.0450E-09	-6.6659E-08	1.7885E-06	-3.6551E-07
-6.8590E-08	-1.1490E-08	1.5231E-06	8.6467E-08
-3.6855E-08	4.7891E-08	1.1961E-06	-7.0190E-07
-1.6208E-08	8.4983E-08	3.1230E-07	6.7895E-07
1.4487E-08	6.3187E-08	1.8267E-06	1.1099E-06
7.7913E-08	5.3335E-08	2.6093E-06	-6.5738E-08
1.0942E-07	2.2081E-08	9.8691E-07	-1.5782E-06
5.9276E-08	-7.7017E-11	-2.0349E-07	7.5202E-07
4.1184E-08	-1.2496E-08	1.5916E-06	1.0264E-06
2.3889E-08	-1.0297E-07	2.0904E-06	4.8778E-07
-1.7081E-08	-8.3373E-08	1.4373E-06	-1.0967E-06
-2.9619E-08	-2.1671E-08	1.0425E-07	1.1950E-06
-2.6636E-08	-3.8965E-08	3.2683E-06	5.0683E-07
-2.3521E-09	-2.1263E-08	1.1265E-06	-1.5243E-06
2.5854E-08	2.4358E-08	6.7744E-07	-1.4332E-07
-1.5533E-08	-4.4086E-08	4.2803E-07	6.9349E-08
-3.6730E-08	-2.6124E-08	1.3240E-06	6.9896E-07
-7.5676E-08	-5.3699E-08	1.0492E-06	-2.3644E-07
-6.5451E-08	-3.7284E-08	1.1804E-06	6.6758E-07
-6.1738E-08	1.1906E-08	1.5275E-06	-7.2705E-07
-1.1652E-08	-4.3702E-09	-1.9845E-07	1.3757E-07
-1.6574E-08	5.3836E-08	1.3777E-06	8.5549E-07
3.2611E-09	8.6455E-08	4.8391E-07	-2.5828E-07
3.4057E-08	-3.3544E-08	4.7418E-07	1.4325E-06
6.1287E-08	-3.3103E-08	1.5895E-06	1.0354E-06
-1.2662E-08	-1.1643E-09	1.9765E-06	8.0581E-07
-1.7584E-08	-5.8232E-08	1.8720E-06	-4.4012E-07
-4.3640E-08	-4.8787E-08	6.8406E-07	-2.6836E-07
-6.3918E-08	1.7039E-08	1.7623E-07	7.2691E-07
-9.0654E-08	6.7422E-08	1.8792E-06	1.9118E-06
-3.8010E-08	5.4740E-08	2.4415E-06	-3.9998E-07
-3.3641E-08	8.2839E-08	1.3100E-06	1.8764E-07
-2.1484E-09	2.2567E-08	1.6189E-06	-8.8862E-07
5.6095E-08	2.6491E-08	-1.8749E-07	2.7453E-07
1.8625E-09	-5.3410E-09	1.2975E-06	9.8957E-07
4.1549E-08	-5.3197E-08	1.4706E-06	9.5057E-07
-1.5435E-08	-2.7128E-08	2.3934E-06	-3.7780E-07
1.0108E-08	-9.2880E-09	1.5026E-07	-2.6738E-07
-1.7864E-08	3.9385E-08	1.7155E-06	8.7635E-07
-4.2566E-08	4.5702E-08	9.1526E-07	-5.4675E-07
-1.5809E-08	3.3325E-08	7.3791E-07	1.0002E-06
-6.9438E-09	6.5244E-08	1.9129E-06	5.3145E-07
-1.1439E-08	3.6027E-08	1.6208E-06	-5.1106E-07
3.3906E-08	4.1135E-08	2.7687E-07	-2.4100E-07
6.0352E-08	1.7484E-08	1.0038E-06	1.0105E-06
2.7474E-08	-8.1553E-10	1.5635E-06	-2.1061E-07
6.9814E-09	-2.4286E-09	1.0574E-07	5.9815E-08
4.6700E-08	-3.9676E-08	1.0729E-06	1.2743E-06
5.5173E-08	-3.6522E-08	1.3032E-06	2.7000E-08
6.5683E-08	-2.0431E-08	6.6510E-07	9.9117E-07
5.3747E-08	-3.5251E-08	1.8435E-06	4.7909E-07
1.8284E-08	-2.3600E-08	9.7628E-07	1.2562E-07
1.3800E-09	-5.1110E-08	1.0168E-06	8.4694E-08
-2.7337E-08	-2.6770E-08	1.2504E-07	7.7612E-07
-7.0595E-09	-3.1490E-08	1.3529E-06	1.3307E-06
-1.9592E-09	-2.4840E-08	1.1166E-06	8.8051E-07
3.7202E-09	-2.4271E-08	1.7349E-06	1.2509E-06
-2.5929E-08	-5.9902E-09	1.9500E-06	6.9376E-07
-4.9635E-09	-5.8853E-09	2.1149E-06	1.4837E-07
-1.7629E-08	-2.6682E-08	1.2526E-06	-1.8730E-07
-1.0892E-08	-2.4742E-08	1.0481E-06	2.5447E-07
-4.1035E-08	-1.5528E-08	1.0404E-06	9.4937E-07
5.8075E-09	-2.8247E-10	2.4638E-06	4.5487E-07
-9.9868E-09	-1.6400E-08	1.1692E-06	-9.5252E-07
-1.3970E-08	-4.7398E-09	2.4046E-07	2.1976E-07
-2.3699E-08	8.5528E-09	7.2694E-07	1.0248E-06
-2.3577E-08	4.9472E-09	1.3297E-06	6.7826E-07
7.0686E-09	6.6229E-09	9.0381E-07	1.0742E-06
-1.4344E-08	8.1742E-09	2.0643E-06	8.1447E-07
1.7969E-09	3.4613E-08	1.0801E-06	6.7675E-07
-8.3607E-09	1.4293E-08	2.9505E-06	7.8691E-07
2.5645E-08	-4.7782E-09	1.0380E-06	-1.6439E-06
1.7863E-08	-1.8991E-08	-3.0298E-08	1.1056E-06
1.3190E-08	-3.6522E-08	1.5927E-06	9.4358E-07
4.8868E-08	-2.2060E-08	1.6533E-06	6.1138E-07
-3.6590E-09	-2.7482E-08	1.3042E-06	-9.0904E-08
-2.9368E-08	-5.6136E-08	7.5631E-07	8.5281E-07
-3.6471E-08	-2.6288E-08	1.6425E-06	7.9469E-07
-6.2410E-09	-2.3855E-08	1.2398E-06	6.2731E-07
-2.5672E-08	4.2795E-08	2.0121E-06	1.1697E-06
-3.3394E-08	2.2748E-08	2.4570E-06	-6.7193E-07
3.1408E-08	3.4276E-08	-2.3069E-08	-3.2646E-07
5.0612E-08	8.0257E-08	1.3269E-06	1.3411E-06
4.6880E-08	5.8279E-08	1.0645E-06	2.3564E-07
6.9199E-08	4.3643E-08	1.5955E-06	1.5540E-06
3.4890E-08	4.5936E-09	2.0758E-06	-4.2854E-08
8.4391E-08	9.3853E-09	1.3250E-06	6.8795E-07
4.2306E-08	-1.4873E-08	1.8801E-06	5.1228E-08
-2.2618E-08	-2.9160E-08	1.3356E-06	4.4854E-07
-1.6937E-08	-3.0864E-08	1.6841E-06	-2.8247E-07
8.1103E-09	1.1166E-09	3.6440E-07	4.8986E-07
1.5861E-08	-1.0347E-08	1.7227E-06	1.1886E-06
2.7012E-08	-4.2149E-08	1.8504E-06	5.4921E-07
6.8991E-08	-1.5580E-08	2.2256E-06	1.0619E-07
5.1343E-08	-5.6932E-08	1.2286E-06	-4.0233E-07
4.0581E-08	-5.6162E-08	1.4320E-06	5.4788E-07
7.5871E-09	-6.0026E-08	1.8656E-06	-4.0946E-07
5.4373E-09	-7.8416E-08	6.7474E-07	-4.8006E-07
1.8997E-08	-6.3659E-08	5.6757E-07	4.1638E-07
-3.1125E-08	-4.0962E-08	9.8732E-07	7.5224E-07
-8.7552E-09	-4.5012E-08	1.4420E-06	6.3593E-07
-2.1240E-08	-2.6211E-08	1.4268E-06	2.9497E-07
-5.3207E-08	3.0685E-08	1.2374E-06	1.9816E-07
-3.3486E-08	1.7668E-08	1.0459E-06	4.8666E-07
3.7085E-09	-1.8204E-08	1.5288E-06	4.8557E-07
6.5480E-09	-1.1550E-08	1.1958E-06	2.9253E-07
-1.5589E-08	1.4903E-08	1.8979E-06	4.7017E-07
-2.3254E-10	-9.7935E-09	1.3359E-06	-9.4797E-07
1.8123E-08	7.6592E-10	1.3318E-07	5.1176E-08
-5.1443E-09	9.2926E-09	5.5415E-07	4.1666E-07
4.4062E-09	1.5039E-08	3.4356E-07	1.0367E-06
-2.6722E-08	-1.4404E-08	1.4364E-06	1.3239E-06
-3.0006E-08	7.9061E-09	1.7444E-06	3.7754E-07
-1.2032E-08	-2.4865E-08	8.0414E-07	-6.5082E-09
1.2340E-08	6.9356E-09	7.6784E-07	1.2652E-06
5.4155E-08	-1.9816E-08	2.0698E-06	3.5280E-07
-1.1018E-09	-3.6120E-08	2.5076E-07	-3.3668E-07
