jMRUI Data Textfile

Filename: Export_to_jmrui.txt

PointsInDataset: 2048
DatasetsInFile: 1
SamplingInterval: 0.250000
ZeroOrderPhase: 0E0
BeginTime: 0E0
TransmitterFrequency: 1.2326E8
MagneticField: 2.8936E0
TypeOfNucleus:  
NameOfPatient:  
DateOfExperiment:  
Spectrometer:  
AdditionalInfo: 
SignalNames:  


Signal and FFT
sig(real)	sig(imag)	fft(real)	fft(imag)
Signal 1 out of 1 in file
1.6333E-06	2.1350E-08	1.6533E-06	8.4305E-07
5.9670E-07	-9.4689E-08	1.9559E-06	-1.3073E-06
3.6436E-07	-2.9973E-07	-1.6213E-07	-1.6712E-06
2.6738E-07	-3.8183E-07	-1.0444E-06	7.7951E-07
-3.0437E-08	-4.0057E-07	1.6540E-06	1.3681E-06
-1.7002E-07	-2.7732E-07	1.4226E-06	-4.2627E-07
-2.4275E-07	-1.4624E-07	1.1321E-06	-3.9311E-07
-1.8395E-07	3.5510E-08	-1.1607E-07	-4.5917E-07
-1.3714E-07	7.2729E-08	8.1115E-07	1.4061E-06
3.6070E-08	7.2435E-08	1.8417E-06	-9.0422E-08
7.8203E-08	-7.3536E-08	1.2665E-06	-1.9160E-07
1.1350E-07	-1.5760E-07	9.3398E-07	-9.7523E-07
1.9834E-08	-2.3500E-07	-3.1760E-07	1.3676E-07
-3.9950E-08	-2.0160E-07	9.5739E-07	1.0858E-06
-1.3733E-07	-1.4515E-07	1.5418E-06	2.8435E-07
-1.5618E-07	-9.0443E-08	1.2273E-06	9.0374E-08
-1.5101E-07	-1.9532E-08	1.6199E-06	1.1776E-07
-1.0645E-07	-6.7436E-09	1.6326E-06	-7.4517E-07
-1.0082E-07	-5.6108E-09	6.2829E-07	-1.2383E-06
-4.8812E-08	-2.6157E-08	-4.5952E-07	-1.2946E-07
-7.5015E-08	-5.1152E-08	6.8934E-07	6.4202E-07
-8.5650E-08	-1.8839E-08	8.0425E-08	1.6728E-07
-1.2119E-07	1.0041E-08	1.0287E-06	1.8916E-06
-1.2494E-07	1.1359E-08	2.5630E-06	-1.5432E-08
-8.4692E-08	3.3666E-08	1.1598E-06	-8.0490E-07
-5.1495E-08	5.4233E-08	3.4554E-07	-7.6171E-07
-2.7078E-08	-8.8315E-09	-5.2209E-07	7.8235E-07
-3.2974E-08	-2.7991E-08	1.3215E-06	1.8068E-06
-8.9677E-08	1.9575E-09	2.3947E-06	5.0838E-07
-8.1208E-08	-1.2200E-08	1.7606E-06	-7.8852E-07
-1.2334E-07	3.5608E-08	5.4203E-07	-3.1070E-07
-6.7335E-08	5.5086E-08	1.0587E-06	1.3314E-07
-6.2945E-08	9.2254E-08	4.1763E-07	1.0254E-07
-6.7978E-08	1.2251E-07	1.4905E-06	1.2264E-06
-3.6721E-08	1.0904E-07	1.9916E-06	-6.7882E-07
-5.0390E-09	9.3083E-08	5.3178E-07	-1.3042E-07
4.1779E-08	4.1110E-08	1.1980E-06	-1.0897E-07
1.4282E-08	1.4468E-08	4.2149E-07	3.4004E-07
2.3656E-08	5.0911E-08	1.7392E-06	2.9629E-07
1.5648E-10	6.3928E-08	4.3544E-07	-2.6277E-07
2.9500E-08	5.5919E-08	1.4912E-06	1.0021E-06
5.7872E-08	7.7918E-08	1.6888E-06	-7.3502E-07
8.4053E-08	3.4766E-08	2.7437E-07	-5.1472E-07
1.3066E-07	2.1373E-09	5.6604E-08	1.0368E-06
1.2767E-07	-6.7701E-08	2.3808E-06	1.0413E-06
5.5891E-08	-9.2963E-08	1.1515E-06	-1.1028E-06
1.6666E-08	-8.5617E-08	6.5129E-07	7.3462E-07
-3.7505E-08	-7.3206E-08	1.5781E-06	-1.4262E-07
-6.2350E-08	-2.9441E-08	8.8277E-07	-5.8535E-08
-2.4644E-08	2.0805E-08	7.5816E-07	-4.8999E-08
-3.0257E-08	4.3874E-08	9.4352E-07	6.2079E-07
5.9539E-08	4.2575E-08	1.1809E-06	-6.4146E-08
6.5182E-08	4.9068E-09	7.8243E-07	5.8576E-07
6.0008E-08	-5.5083E-08	1.5579E-06	3.0249E-07
4.1579E-08	-1.2344E-07	1.1984E-06	-2.6222E-08
-1.8020E-08	-1.0990E-07	9.9198E-07	-7.0672E-09
-7.4057E-08	-9.1851E-08	9.8932E-07	2.9068E-07
-8.7165E-08	-3.0615E-08	1.0359E-06	1.4322E-07
-7.5487E-08	1.9646E-08	9.4313E-07	3.7774E-07
-4.3260E-08	3.1652E-08	1.0463E-06	6.6850E-07
1.2277E-08	6.8094E-08	2.0721E-06	5.6465E-07
2.5588E-08	2.6974E-08	1.3452E-06	-8.0999E-07
5.4315E-08	-2.0724E-08	7.1393E-07	4.3046E-07
2.9788E-08	-4.2572E-08	1.6947E-06	1.5849E-07
-1.1621E-08	-8.8630E-08	1.4582E-06	-5.5795E-07
-8.3320E-08	-1.0373E-07	2.5292E-07	-7.7408E-07
-1.0879E-07	-7.0951E-08	6.4741E-08	7.8583E-07
-9.7273E-08	-2.6874E-08	8.3972E-07	1.0124E-06
-7.5145E-08	4.4336E-09	1.9211E-06	1.2778E-06
-9.4326E-08	2.2615E-08	2.1552E-06	-5.0970E-07
-5.8941E-08	5.4522E-08	1.1095E-06	-2.7057E-07
-2.1201E-08	8.0346E-08	8.2665E-07	-6.8550E-07
1.9793E-08	8.3048E-08	-1.5498E-07	7.1847E-07
2.5255E-08	4.7337E-08	1.4915E-06	1.5408E-06
3.7171E-08	3.8628E-08	2.6381E-06	4.2579E-07
4.6836E-08	4.2679E-08	1.5724E-06	-1.1279E-06
2.2967E-08	3.1119E-08	9.3679E-07	2.2806E-07
2.9089E-08	2.0295E-08	1.6858E-06	-9.3638E-07
2.1467E-08	-2.0341E-08	-1.7005E-07	-4.0255E-07
-7.9621E-09	-6.3857E-09	8.0669E-07	6.0921E-07
-5.1596E-08	-1.6294E-09	9.8444E-07	2.2299E-07
-9.4056E-09	4.7075E-08	9.6913E-07	1.3975E-07
-4.2817E-08	5.5468E-08	1.1613E-06	2.3249E-07
3.4117E-08	5.9049E-08	7.4803E-07	-7.5735E-07
6.5838E-08	3.4544E-08	-5.5682E-07	6.7467E-07
6.7418E-08	7.3262E-09	1.0275E-06	1.4429E-06
6.6699E-08	-5.6092E-09	1.3733E-06	7.2223E-07
3.0253E-08	-2.7200E-08	9.8387E-07	2.5196E-07
5.1468E-08	-6.4500E-08	6.6312E-07	1.4682E-06
1.1177E-09	-7.4437E-08	2.5980E-06	9.7131E-07
-3.1239E-08	-1.7550E-08	1.3098E-06	-6.8562E-07
-3.7438E-08	3.1806E-08	2.2754E-07	1.0657E-06
1.0796E-08	3.3093E-08	2.5982E-06	1.8092E-06
4.3347E-08	3.7152E-08	2.6194E-06	-1.0732E-06
4.0410E-08	5.9232E-08	4.4060E-07	1.3854E-07
5.3867E-08	-1.4783E-08	2.2066E-06	4.9759E-07
7.4872E-09	-1.5468E-08	1.3325E-06	-4.6446E-07
2.2404E-08	-6.3313E-08	1.5454E-06	1.4255E-07
-3.4209E-08	-3.4635E-08	1.4700E-06	-5.5381E-07
5.3983E-09	-8.2622E-09	6.8883E-07	-5.4894E-07
-1.5527E-08	-3.6796E-08	2.5551E-07	5.8569E-07
1.9535E-09	3.4015E-08	1.8336E-06	9.6209E-07
5.0194E-08	-1.1712E-08	1.7477E-06	-6.4683E-07
2.5272E-08	1.1290E-08	5.5132E-07	-3.2146E-07
4.8419E-09	-3.3848E-08	6.1376E-07	2.6964E-07
-2.2364E-08	-3.7379E-08	7.9014E-07	8.4547E-07
-2.0983E-08	-2.8063E-08	1.8073E-06	3.3183E-07
-6.4354E-08	-4.3832E-08	3.4484E-07	-2.6270E-08
-3.3120E-08	-1.7236E-08	1.6479E-06	1.5641E-06
-3.6590E-08	4.2500E-08	1.6460E-06	-4.9176E-07
-2.7800E-08	1.4792E-08	1.2182E-06	1.1863E-06
1.6847E-08	2.9588E-08	2.3533E-06	-7.3643E-07
3.2494E-08	1.4288E-08	3.7924E-07	2.1814E-07
1.3050E-08	-9.2155E-09	2.0193E-06	-8.7307E-08
-3.6028E-08	-1.9199E-08	8.8901E-08	-2.2738E-07
-1.1736E-08	-1.5206E-08	1.2684E-06	1.1938E-06
-3.4458E-08	1.0974E-08	1.7453E-06	3.6185E-07
-6.9400E-08	2.1504E-08	1.4954E-06	-9.8335E-08
-1.3144E-08	4.1125E-08	1.1702E-06	5.7122E-07
1.8158E-08	5.2075E-08	2.0734E-06	-1.6693E-08
6.8094E-09	3.7258E-08	1.3753E-06	4.2689E-08
1.8178E-08	5.9109E-08	2.2315E-06	-8.3007E-07
2.5331E-08	5.0456E-08	1.2062E-07	-1.1000E-06
8.5127E-08	2.0144E-08	4.4765E-07	1.5364E-07
4.1882E-08	-1.9250E-08	3.7346E-07	7.5288E-07
4.1599E-08	-3.3413E-08	2.1823E-06	2.6406E-07
1.4150E-08	-5.0289E-08	1.2222E-07	-1.0808E-06
-3.4403E-09	-1.5971E-08	1.7040E-07	9.9194E-07
-1.6149E-08	-1.1706E-08	6.6986E-07	7.0981E-07
-5.2614E-08	9.7170E-09	1.1551E-06	1.2137E-06
-2.4296E-08	3.7207E-08	1.5509E-06	7.6101E-07
-1.8627E-08	5.1079E-08	1.9250E-06	1.0871E-07
2.7266E-08	2.5051E-08	3.5538E-07	-1.1628E-07
1.6707E-08	4.4367E-08	1.4750E-06	1.4300E-06
9.0325E-09	3.5202E-08	1.4548E-06	-3.3389E-07
1.0454E-08	2.6359E-08	6.7690E-07	1.1897E-06
8.2303E-08	-8.4086E-09	2.2509E-06	7.2584E-07
3.1268E-08	-6.1298E-08	1.6224E-06	-4.8064E-08
3.7759E-08	-3.1343E-08	1.3143E-06	1.5242E-07
-3.2002E-09	-7.5378E-09	1.4970E-06	4.2780E-07
-3.2523E-09	-5.4426E-08	1.6797E-06	-1.5596E-07
1.9704E-08	-1.5874E-08	6.9742E-07	-4.4708E-08
1.8921E-08	-4.6744E-09	1.3442E-06	1.3173E-06
7.7371E-09	-8.6473E-09	2.9713E-06	-2.5814E-07
-2.7135E-08	-6.1096E-08	4.4699E-07	-1.5229E-06
-1.6970E-08	-4.5098E-08	2.4995E-07	1.0708E-06
-4.8384E-08	-1.1612E-08	1.7844E-06	3.0834E-07
9.3951E-09	-2.8624E-08	9.2714E-07	6.6909E-08
-3.8068E-08	-2.2766E-08	1.2523E-06	2.9568E-07
-1.4603E-08	-2.9220E-08	7.5683E-07	2.4826E-07
-1.7662E-09	1.8872E-08	1.5250E-06	1.0323E-06
-3.2292E-08	7.6118E-09	1.6765E-06	-8.0840E-07
-3.1558E-08	-1.6887E-08	-8.4234E-07	7.5413E-07
-2.1430E-08	1.4249E-09	2.5300E-06	2.6586E-06
3.2977E-08	-1.3815E-08	2.7122E-06	-8.8168E-07
-5.9972E-09	-1.7768E-08	1.0640E-06	6.8627E-08
-5.0078E-08	-1.4728E-08	1.3275E-06	-3.6846E-07
-2.0199E-08	9.1789E-09	5.4787E-07	7.2006E-07
-1.3572E-08	4.7036E-08	1.5208E-06	7.9117E-07
3.1003E-08	7.6530E-09	2.1515E-06	1.3196E-06
2.0213E-08	4.4802E-09	3.1330E-06	-1.3886E-06
1.6932E-08	-1.8697E-09	-5.0533E-07	-6.0124E-07
2.8248E-08	-9.4780E-09	2.1502E-06	1.0326E-06
2.6114E-08	-2.7779E-08	8.8080E-07	-1.1628E-06
-1.0301E-08	-2.1826E-08	5.5464E-07	7.5499E-07
-3.3335E-08	-4.1626E-08	1.1351E-06	5.4992E-07
-3.3480E-08	-8.5648E-09	1.8906E-06	2.9543E-07
-4.8158E-08	2.3465E-08	1.2640E-07	-3.6266E-07
-3.5138E-08	3.0409E-08	1.3994E-06	2.2237E-06
-2.2270E-08	7.0556E-08	2.7061E-06	-3.0758E-07
2.0504E-08	6.1906E-08	1.1890E-06	-4.3907E-07
7.3109E-08	3.7509E-08	9.8116E-08	-1.5530E-07
5.5709E-08	4.1025E-08	1.0447E-06	2.3137E-06
2.6331E-08	-2.1674E-08	2.8217E-06	3.8004E-07
7.0270E-08	-7.9682E-09	2.0014E-06	2.0434E-07
3.1320E-08	-1.7121E-08	1.4889E-06	-8.6476E-07
-1.0656E-08	-1.0666E-08	9.2922E-07	1.4047E-06
2.4221E-08	-2.5090E-08	3.2251E-06	-5.6776E-07
-1.5322E-08	-2.4785E-08	1.5588E-07	-7.1163E-07
2.6933E-08	-5.8143E-09	1.4027E-06	1.1086E-06
2.4022E-08	1.2094E-08	2.4006E-06	5.3329E-07
2.2139E-08	-1.9411E-08	2.3155E-06	-1.4744E-06
5.2260E-08	-1.4301E-08	-3.3910E-07	-1.5647E-07
4.3794E-08	-6.0721E-08	2.1242E-06	1.1925E-06
2.8384E-08	-1.8244E-08	2.1112E-06	-5.4404E-07
-3.9366E-09	-4.8428E-08	1.6852E-06	-1.0956E-06
1.9990E-08	-6.3712E-08	-7.8949E-08	-7.2308E-07
-2.8453E-08	-3.3926E-09	7.4129E-07	8.4002E-07
-2.7170E-08	-1.6475E-08	1.3480E-06	6.3604E-07
-5.8275E-08	-1.1324E-08	2.1350E-06	-6.2021E-08
-5.7463E-08	1.7246E-08	7.0095E-07	-5.1858E-07
-5.0541E-08	2.4036E-08	1.5338E-06	5.5099E-07
-9.8535E-11	1.6297E-08	1.1790E-06	-6.6514E-07
-9.4631E-09	7.1211E-09	9.5803E-07	4.8751E-07
-2.1449E-08	-3.4206E-09	1.6068E-06	-4.0048E-07
-1.2739E-08	-4.0243E-09	4.3520E-07	-1.2945E-07
1.4855E-09	-5.3123E-08	1.2553E-06	6.5058E-07
3.0296E-08	-2.9480E-08	1.3215E-06	-2.5313E-07
7.3999E-09	-3.4344E-08	8.4867E-07	4.3427E-07
2.2015E-08	5.5641E-09	1.8583E-06	8.8763E-08
1.8959E-08	9.0870E-09	9.7796E-07	-6.8679E-07
2.2462E-08	7.0733E-09	4.1310E-07	7.4693E-08
1.0689E-08	-1.3434E-08	9.7864E-07	7.8665E-07
8.1748E-10	-9.9999E-09	1.7101E-06	7.4216E-08
2.1402E-08	-4.3388E-09	1.1337E-06	-3.6082E-07
