jMRUI Data Textfile

Filename: Export_to_jmrui.txt

PointsInDataset: 2048
DatasetsInFile: 1
SamplingInterval: 0.250000
ZeroOrderPhase: 0E0
BeginTime: 0E0
TransmitterFrequency: 1.2326E8
MagneticField: 2.8936E0
TypeOfNucleus:  
NameOfPatient:  
DateOfExperiment:  
Spectrometer:  
AdditionalInfo: 
SignalNames:  


Signal and FFT
sig(real)	sig(imag)	fft(real)	fft(imag)
Signal 1 out of 1 in file
2.9889E-06	-2.5157E-07	-3.1886E-06	-8.7950E-07
4.6968E-06	-1.7409E-06	-2.2205E-06	5.7252E-07
2.8969E-06	-2.7151E-06	-3.3751E-06	8.3670E-07
1.6999E-06	-3.0646E-06	-1.3892E-06	2.3834E-06
-2.2254E-07	-2.6825E-06	-1.7567E-06	9.5561E-07
-1.4844E-06	-1.7815E-06	-1.0850E-06	2.4524E-06
-2.2922E-06	-4.4025E-07	-4.5824E-07	9.9676E-07
-1.5869E-06	6.8151E-07	-8.9050E-07	1.4032E-06
-6.0938E-07	1.0879E-06	-5.5730E-07	9.2641E-07
4.3272E-07	8.8289E-07	-1.0679E-06	9.2152E-07
9.4942E-07	4.1118E-07	-1.0828E-06	1.6072E-06
1.1910E-06	-1.5390E-07	6.8026E-08	1.1950E-06
8.5742E-07	-7.1197E-07	-1.3865E-06	4.7697E-07
3.6286E-07	-1.0229E-06	-6.0475E-07	2.3744E-06
-1.9906E-07	-9.0091E-07	4.8571E-07	3.9850E-07
-5.4077E-07	-7.1312E-07	-1.5961E-06	4.8938E-07
-7.6078E-07	-3.5135E-07	-7.8731E-07	2.1599E-06
-7.2292E-07	-8.0319E-08	3.5990E-07	1.0017E-06
-6.6447E-07	7.7911E-08	-7.4339E-07	7.2424E-07
-5.2916E-07	1.8493E-07	-1.3132E-07	9.1919E-07
-5.3094E-07	2.6435E-07	-1.3052E-06	2.2779E-07
-4.7295E-07	3.7654E-07	-1.4020E-06	2.0326E-06
-4.2910E-07	4.1017E-07	6.1519E-08	1.8318E-06
-2.8650E-07	4.8535E-07	-3.5446E-10	6.6432E-07
-8.2570E-08	4.3312E-07	-1.3404E-06	8.2188E-07
5.8496E-08	2.9886E-07	-1.0059E-06	2.0185E-06
7.7972E-08	1.5078E-07	-6.1760E-07	2.2572E-06
9.7258E-08	-7.7265E-08	5.8365E-07	2.5386E-06
-1.3912E-07	-1.1791E-07	9.0427E-07	1.4124E-06
-2.3148E-07	-5.4370E-08	1.0662E-06	1.1086E-06
-4.5967E-07	1.4044E-07	4.4070E-07	-3.7785E-08
-4.1175E-07	4.1345E-07	-4.6409E-07	8.1796E-07
-3.6679E-07	6.1115E-07	3.6462E-07	9.7985E-07
-9.7447E-08	7.1429E-07	-1.5076E-08	-3.7590E-08
1.1142E-07	6.1671E-07	-1.3827E-06	9.9686E-07
2.8758E-07	4.0979E-07	4.9514E-07	2.1798E-06
3.2209E-07	1.6985E-07	1.1153E-06	-8.9480E-09
3.0019E-07	1.0822E-07	-7.6492E-07	-7.3057E-07
1.8699E-07	4.6373E-08	-2.1643E-06	1.1648E-06
1.7242E-07	2.8826E-08	2.3395E-07	2.2967E-06
1.2808E-07	3.3791E-08	-2.4703E-07	1.1424E-07
1.6656E-07	-1.3062E-08	-1.0582E-06	1.7418E-06
1.7951E-07	-1.0069E-07	-1.2734E-07	1.4781E-06
8.0125E-08	-1.7729E-07	-1.4413E-08	1.9086E-06
-2.6145E-08	-2.4231E-07	6.6297E-07	9.2335E-07
-1.8687E-07	-2.4628E-07	-3.4216E-07	8.4821E-07
-3.6410E-07	-1.7226E-07	-2.8773E-07	1.4531E-06
-3.5998E-07	2.8652E-09	5.7746E-07	1.6498E-06
-2.6359E-07	1.3315E-07	3.3400E-07	3.0865E-07
-1.0065E-07	2.6077E-07	-5.1113E-07	1.5182E-06
3.2737E-08	2.3657E-07	9.0128E-07	1.2140E-06
1.1381E-07	1.2710E-07	2.3808E-07	6.8494E-07
6.1871E-08	-3.4810E-08	6.8051E-07	6.6336E-07
-7.9184E-08	-1.3325E-07	9.0187E-08	-1.7848E-07
-2.9763E-07	-1.8961E-07	-8.2578E-07	3.1083E-07
-4.1497E-07	-5.9643E-08	-4.3828E-07	1.0535E-06
-5.2658E-07	9.3962E-08	-4.2867E-07	4.6375E-07
-4.3339E-07	2.4648E-07	-8.0042E-07	1.3829E-06
-2.6152E-07	3.2429E-07	2.1225E-07	8.2094E-07
-5.1919E-08	2.9000E-07	-1.0012E-06	7.2620E-07
1.1616E-08	1.8898E-07	-3.4534E-07	1.3963E-06
4.6280E-08	5.8404E-08	-8.3991E-07	1.1637E-06
-9.4302E-08	-7.8578E-08	9.8290E-08	2.1549E-06
-2.2137E-07	-8.8120E-08	5.5723E-07	4.2770E-07
-3.1358E-07	-1.8072E-08	-1.0941E-06	7.8920E-07
-3.0451E-07	1.6015E-07	-3.4255E-07	1.8155E-06
-3.0110E-07	3.0242E-07	-4.2222E-08	1.1738E-06
-1.7079E-07	3.0674E-07	-3.0512E-07	1.4041E-06
-1.2617E-07	2.7868E-07	4.0086E-08	1.1845E-06
-9.2593E-08	1.8052E-07	-5.8893E-07	1.1650E-06
-1.1648E-07	5.2111E-08	-1.3215E-07	1.8889E-06
-1.7221E-07	1.1831E-08	2.7989E-07	1.1582E-06
-2.2526E-07	2.9106E-08	-4.2218E-07	1.2775E-06
-2.2535E-07	1.6964E-07	1.3547E-07	1.7823E-06
-1.9142E-07	2.3534E-07	4.8836E-07	1.1008E-06
-1.2016E-07	2.9202E-07	9.4641E-09	6.1305E-07
-8.0862E-08	2.6105E-07	-1.0057E-06	8.2294E-07
-6.0317E-08	1.5001E-07	-7.2657E-07	2.4297E-06
-2.8526E-08	7.2509E-08	8.9883E-07	1.6461E-06
-7.0444E-08	1.8510E-08	-2.9875E-07	7.8676E-07
-2.1132E-07	4.7548E-08	-2.5869E-07	1.6684E-06
-2.2177E-07	1.1204E-07	-2.2847E-07	1.3930E-06
-1.8918E-07	2.0690E-07	-2.3998E-07	1.7543E-06
-8.8703E-08	2.5719E-07	-4.2101E-07	1.9788E-06
-3.9347E-08	3.0415E-07	8.3491E-07	2.7836E-06
4.8024E-08	2.5319E-07	1.3053E-06	6.6883E-07
4.4909E-08	2.2267E-08	-4.6072E-07	1.1660E-06
-1.3632E-08	-6.1751E-08	4.4792E-07	1.8126E-06
-1.1553E-07	-1.4295E-07	4.9756E-07	1.2212E-06
-2.0296E-07	-1.4497E-07	-1.0598E-07	1.0140E-06
-3.2507E-07	1.1485E-08	-1.7531E-07	2.3514E-06
-2.7130E-07	1.4492E-07	1.4905E-06	1.5266E-06
-2.4217E-07	3.4966E-07	5.3253E-08	8.2422E-07
-1.5311E-07	3.3091E-07	6.8038E-07	1.6818E-06
-4.9788E-08	3.2139E-07	5.2549E-07	8.5969E-07
8.9625E-08	1.1812E-07	6.0417E-07	1.1387E-06
5.1068E-08	-2.6012E-08	2.3547E-07	3.7361E-07
-3.0289E-08	-1.2287E-07	-3.9426E-07	8.9902E-07
-9.6984E-08	-1.1916E-07	-5.9679E-07	1.2194E-06
-1.7823E-07	-5.6214E-08	-1.5114E-07	1.9996E-06
-2.9896E-07	-1.6232E-08	1.3685E-07	1.2221E-06
-3.0356E-07	-5.8505E-09	-7.1258E-07	2.1024E-06
-2.7497E-07	3.9905E-08	8.8766E-07	2.6773E-06
-2.3952E-07	8.8330E-08	1.0405E-06	1.4530E-06
-2.8778E-07	1.6108E-07	9.5054E-07	1.5553E-06
-2.5122E-07	1.9349E-07	8.5012E-07	7.7237E-07
-2.6390E-07	1.7796E-07	2.5642E-07	1.3551E-06
-2.0973E-07	2.3153E-07	9.1396E-07	1.0750E-06
-1.4643E-07	1.9196E-07	3.8086E-07	9.8045E-07
-6.3453E-08	2.2788E-07	6.4787E-07	5.5677E-07
-8.5290E-08	1.4882E-07	-9.1228E-07	9.5320E-07
-4.6462E-08	7.6396E-08	6.6723E-07	2.5379E-06
-7.2957E-08	5.9120E-09	1.2773E-06	4.8240E-07
-1.1166E-07	3.8625E-08	-1.7071E-07	8.2854E-07
-1.9613E-07	2.4251E-08	6.9591E-07	1.1836E-06
-2.8813E-07	9.7015E-08	5.1794E-08	1.0052E-07
-2.7574E-07	9.7988E-08	-7.1675E-07	1.2309E-06
-2.4674E-07	2.1612E-07	-1.7260E-07	1.0487E-06
-1.7675E-07	2.4976E-07	-1.0293E-06	2.0366E-06
-9.6441E-08	2.0212E-07	9.4348E-07	2.4352E-06
1.9505E-08	1.8294E-07	5.4102E-07	1.2782E-06
1.1354E-08	9.1035E-08	1.0335E-06	1.4841E-06
4.5696E-09	7.9959E-09	4.8744E-07	4.8915E-07
-9.6593E-08	-7.3103E-09	2.1012E-07	7.7338E-07
-1.3348E-07	-3.5176E-09	-6.8599E-07	8.1654E-07
-1.2801E-07	1.0332E-07	1.2049E-07	2.1289E-06
-1.9064E-07	1.5851E-07	8.2126E-07	9.1602E-07
-1.3528E-07	2.1247E-07	1.7174E-07	2.2809E-07
-1.3478E-07	1.5205E-07	-1.4836E-06	4.8235E-07
-1.0616E-07	1.9689E-07	-9.4496E-07	2.1989E-06
-4.6137E-08	1.2735E-07	-9.1781E-07	1.9369E-06
-9.5273E-08	5.4907E-08	1.6206E-07	3.2827E-06
-7.8565E-08	9.5381E-08	7.9827E-07	1.5392E-06
-1.5767E-07	1.2711E-07	3.8361E-07	2.1756E-06
-1.4611E-07	1.4001E-07	4.6739E-07	8.4962E-07
-9.2298E-08	1.3398E-07	-7.1548E-07	2.5919E-06
-3.8756E-08	8.2538E-08	1.6387E-06	2.1211E-06
-4.1047E-08	8.8461E-08	2.5174E-07	1.0021E-06
-5.5429E-08	1.3107E-08	5.2261E-07	1.7077E-06
-5.8924E-08	-1.9145E-08	1.2418E-08	1.1770E-06
-1.0586E-07	-1.5591E-08	9.6838E-08	2.5067E-06
-1.6397E-07	-3.8382E-08	1.7551E-06	1.5149E-06
-2.2438E-07	8.8907E-08	2.8562E-09	1.8738E-07
-2.0169E-07	9.7285E-08	-2.5295E-07	1.8172E-06
-2.1567E-07	1.6935E-07	1.3556E-07	1.0864E-06
-1.3328E-07	1.8228E-07	-6.4661E-07	1.8578E-06
-4.8202E-08	1.4721E-07	6.4364E-09	2.2887E-06
-6.2465E-08	1.1509E-07	6.7461E-07	2.3089E-06
-2.4622E-08	2.7797E-08	4.7949E-07	1.2188E-06
-5.6742E-08	3.7253E-08	-1.5046E-07	2.1469E-06
-6.8053E-08	-2.0207E-08	5.3351E-07	1.8575E-06
-1.3557E-07	6.2829E-08	2.7995E-07	2.2022E-06
-1.8719E-07	1.3130E-07	7.5914E-07	1.5506E-06
-1.8587E-07	1.5095E-07	-9.4021E-08	2.0021E-06
-1.6227E-07	1.6627E-07	6.4808E-07	1.9392E-06
-1.1740E-07	1.5679E-07	-5.9794E-08	2.0986E-06
-6.9474E-08	1.3221E-07	5.7585E-07	2.3970E-06
-1.7968E-08	1.4949E-07	3.8550E-07	2.6450E-06
-4.7845E-08	1.3123E-07	1.4305E-06	2.5816E-06
-5.4850E-08	1.0355E-07	1.0146E-06	2.2935E-06
-7.9629E-08	6.4453E-08	2.2617E-06	2.5015E-06
-5.3488E-08	7.2880E-08	2.2224E-06	5.3114E-07
-1.0076E-07	6.5561E-08	5.2746E-07	3.7533E-07
-9.2813E-08	7.4439E-08	3.1606E-07	1.4635E-06
-9.9764E-08	9.6392E-08	5.2890E-07	1.1881E-06
-1.1760E-07	1.2589E-07	3.5374E-09	2.1217E-06
-1.0642E-07	1.1519E-07	1.4912E-06	2.0833E-06
-8.8109E-08	1.2067E-07	9.7704E-07	1.2410E-06
-4.2012E-08	1.0480E-07	1.0079E-06	1.1361E-06
-3.8851E-09	9.9671E-08	-1.5320E-07	1.3564E-06
-9.2109E-10	1.4061E-07	1.1924E-06	2.6024E-06
-2.2674E-08	1.0825E-07	1.4612E-06	6.2303E-07
-1.5491E-08	6.8879E-08	-2.0546E-07	1.2372E-06
6.3544E-09	6.1032E-08	4.9900E-07	2.4255E-06
-2.9882E-08	4.5432E-08	1.6581E-06	2.1339E-06
-3.0852E-08	9.0497E-08	1.8458E-06	7.3817E-07
-3.4775E-08	8.7453E-08	3.4358E-07	2.1495E-07
-7.2429E-08	1.1634E-07	-1.7303E-07	1.4159E-06
-6.1778E-08	5.2940E-08	1.5871E-07	1.6524E-06
-5.7647E-08	8.4270E-08	3.5339E-07	2.3554E-06
-2.2758E-08	6.4286E-08	1.2781E-06	1.8260E-06
2.1266E-09	9.5217E-08	7.9323E-07	1.7388E-06
-3.2413E-08	6.1239E-08	1.3224E-06	1.3147E-06
-2.8965E-08	3.8964E-08	4.9723E-08	1.5823E-06
-5.5275E-08	6.1520E-08	1.6854E-06	2.4631E-06
-3.2878E-08	9.2577E-08	1.4119E-06	7.4916E-07
-6.8451E-08	8.0889E-08	1.0618E-06	1.3467E-06
-6.8873E-08	1.3343E-07	7.9920E-07	6.4975E-07
-7.2773E-08	4.6712E-08	3.9695E-07	1.5938E-06
-3.7600E-08	9.6494E-08	8.2732E-07	1.3876E-06
-7.2925E-08	4.2123E-08	9.1953E-07	2.0190E-06
-9.6521E-08	4.8321E-08	2.0031E-06	1.1404E-06
-4.6942E-08	9.1399E-08	1.0062E-06	4.5547E-07
-7.4770E-08	1.0912E-07	1.1261E-06	7.6791E-07
-7.3160E-08	7.4227E-08	7.1056E-07	-1.6421E-07
-3.2052E-08	1.3881E-07	-5.9679E-07	6.0252E-07
-3.3560E-08	9.9767E-08	2.1698E-07	1.3640E-06
-6.9705E-08	1.1630E-07	-1.7967E-07	8.6778E-07
-2.8561E-08	8.5231E-08	1.8005E-08	1.7799E-06
-1.1231E-08	9.5718E-08	1.2847E-07	1.1031E-06
-3.8875E-08	9.5468E-08	-1.9757E-07	2.0208E-06
-4.1605E-08	1.2692E-07	4.1702E-07	1.6020E-06
-3.9545E-08	5.5687E-08	-7.9696E-08	2.4223E-06
-1.6719E-08	6.9925E-08	1.4802E-06	2.2706E-06
-2.4737E-08	1.0769E-07	1.1590E-06	1.6570E-06
5.2990E-09	6.7840E-08	2.0079E-06	9.8754E-07
