jMRUI Data Textfile

Filename: Export_to_jmrui.txt

PointsInDataset: 2048
DatasetsInFile: 1
SamplingInterval: 0.250000
ZeroOrderPhase: 0E0
BeginTime: 0E0
TransmitterFrequency: 1.2326E8
MagneticField: 2.8936E0
TypeOfNucleus:  
NameOfPatient:  
DateOfExperiment:  
Spectrometer:  
AdditionalInfo: 
SignalNames:  


Signal and FFT
sig(real)	sig(imag)	fft(real)	fft(imag)
Signal 1 out of 1 in file
1.5523E-06	-2.2061E-07	-1.0655E-06	-1.0641E-06
2.4167E-06	-9.7336E-07	-1.6234E-06	2.6664E-07
1.6176E-06	-1.3390E-06	-1.0415E-06	8.4526E-07
9.5545E-07	-1.5394E-06	-6.9470E-07	6.4447E-07
3.3308E-08	-1.3406E-06	-7.9727E-07	1.0937E-06
-5.7552E-07	-9.5648E-07	1.4639E-07	8.1682E-07
-1.0048E-06	-3.6274E-07	-4.5687E-07	4.7573E-07
-7.5246E-07	1.8126E-07	2.0773E-07	6.3080E-07
-3.0431E-07	4.3110E-07	-4.9879E-07	-2.7022E-07
2.7177E-07	2.8529E-07	-9.2051E-07	6.6583E-07
4.5482E-07	-8.2351E-08	-5.2450E-07	6.9261E-07
5.3317E-07	-3.2340E-07	-7.0958E-07	8.5583E-07
3.8746E-07	-4.0711E-07	-2.8335E-07	1.3493E-06
1.0586E-07	-5.3808E-07	1.5338E-07	7.3196E-07
-1.4533E-07	-4.4074E-07	-4.1201E-07	1.2603E-06
-2.5171E-07	-2.9659E-07	1.2222E-06	1.2056E-06
-3.4506E-07	-1.1638E-07	5.4467E-07	-3.2885E-07
-2.8157E-07	-3.7695E-08	2.1126E-07	2.9654E-09
-2.4330E-07	2.7957E-08	-5.4605E-07	-4.3156E-07
-1.7738E-07	-3.7154E-08	-4.8570E-07	7.9477E-07
-2.6588E-07	-5.0335E-08	-3.4016E-08	-1.8364E-07
-3.1278E-07	2.4582E-08	-1.2314E-06	4.6728E-07
-3.3841E-07	9.4190E-08	-2.2715E-07	1.1626E-06
-2.9822E-07	2.0265E-07	-2.6672E-08	5.0080E-07
-1.7113E-07	2.4800E-07	-3.4992E-07	3.6190E-07
-5.6132E-08	2.1201E-07	-6.4919E-07	5.9697E-07
2.1915E-08	1.3387E-07	-5.9531E-07	8.1841E-07
6.1536E-08	5.0811E-08	-8.3551E-07	1.3369E-06
-1.1329E-08	-5.9775E-08	4.3973E-07	1.9921E-06
-1.2270E-07	-6.6050E-08	9.4445E-07	3.6110E-07
-2.1428E-07	4.9870E-08	-3.0456E-07	3.6603E-07
-2.6661E-07	1.9630E-07	-1.8437E-07	9.2054E-07
-2.1997E-07	3.0588E-07	8.3889E-08	1.2143E-06
-7.5479E-08	3.1705E-07	5.9784E-07	8.7130E-07
5.1983E-08	2.9187E-07	5.8286E-07	6.2403E-07
1.6170E-07	2.2816E-07	3.8581E-07	-1.8278E-07
1.6668E-07	8.8257E-08	-7.3277E-07	5.0781E-07
1.7883E-07	1.2726E-07	7.1789E-08	9.3973E-07
9.0833E-08	-1.4370E-08	-1.0672E-07	1.0623E-06
6.7268E-08	2.9118E-08	1.0005E-06	7.3197E-07
8.4733E-08	6.2224E-08	-2.1363E-07	-2.3334E-07
7.0767E-08	-1.2685E-08	-4.6978E-07	8.9898E-07
6.8876E-08	-2.5852E-08	-8.6972E-08	1.0797E-06
8.3179E-08	-6.7001E-08	1.8608E-07	7.8842E-07
7.4642E-08	-1.5388E-07	-6.0198E-07	1.6263E-06
1.8172E-08	-1.7296E-07	2.0934E-06	2.0963E-06
-8.4547E-08	-1.7527E-07	1.1845E-06	-1.1210E-06
-1.6714E-07	-1.1690E-07	-6.3373E-07	7.6645E-07
-1.7141E-07	-2.5171E-08	9.7570E-07	1.0237E-06
-1.3211E-07	7.7092E-08	8.3342E-07	7.9594E-08
-2.7839E-08	4.4169E-08	1.2215E-07	1.9957E-07
-2.8758E-09	2.1615E-08	6.2660E-07	6.5160E-07
3.1410E-08	-9.0229E-08	4.1604E-07	8.7644E-08
-2.1473E-08	-1.4139E-07	7.9594E-07	6.3306E-07
-8.9000E-08	-7.9934E-08	9.1097E-07	-6.6132E-07
-1.8123E-07	-9.0211E-08	-5.2159E-08	-5.1652E-07
-2.6746E-07	-1.4601E-08	-5.9026E-07	-4.9861E-07
-2.2238E-07	4.5675E-08	-7.3568E-07	7.8970E-07
-1.5205E-07	1.4986E-07	1.9050E-07	4.1504E-07
-4.3456E-08	8.9910E-08	-2.1420E-07	5.6997E-07
-5.7463E-09	3.2269E-08	5.6853E-07	3.5480E-07
4.4817E-08	-5.7118E-08	2.9164E-08	-4.9933E-07
-8.1867E-08	-1.4195E-07	-9.6482E-07	-2.7849E-07
-1.1247E-07	-1.0803E-07	-1.0839E-06	7.8133E-07
-2.3920E-07	-1.0381E-07	-5.9369E-07	8.9274E-07
-2.8937E-07	-1.0316E-09	-6.0085E-07	1.2157E-06
-2.5495E-07	1.0838E-07	-9.3028E-08	1.3966E-06
-1.9282E-07	1.5708E-07	4.4878E-07	1.1484E-06
-1.5417E-07	1.5489E-07	6.9815E-08	4.2863E-07
-2.7869E-08	1.3789E-07	-1.9319E-07	1.1223E-06
-3.8752E-08	7.6585E-08	3.9652E-08	7.7059E-07
-5.6598E-08	1.9800E-08	-2.4847E-07	1.5704E-06
-1.2711E-07	-2.9662E-08	8.2495E-07	1.4199E-06
-1.3572E-07	1.4930E-08	9.4308E-07	1.1204E-06
-1.4203E-07	5.0224E-08	1.2079E-06	7.3492E-08
-8.9088E-08	1.2117E-07	-1.2526E-07	1.2683E-07
-9.8592E-08	1.1178E-07	1.7207E-07	6.4394E-07
-8.1818E-08	1.0403E-07	-5.5014E-08	9.4194E-07
-6.9830E-08	9.1200E-08	8.5620E-07	9.4404E-07
-7.2777E-08	5.2861E-08	4.1411E-07	3.3182E-07
-9.4557E-08	-2.2060E-08	3.8902E-07	4.5728E-07
-1.0814E-07	1.4956E-08	-1.2862E-07	7.0179E-07
-1.1378E-07	1.2036E-07	8.2996E-07	1.2182E-06
-1.0177E-07	1.3738E-07	8.6792E-07	2.0083E-07
-2.3165E-08	1.6822E-07	4.8863E-07	2.2732E-07
3.4093E-08	1.4048E-07	1.1192E-07	4.0044E-07
4.1820E-08	8.6002E-08	1.0859E-06	8.9481E-07
3.1190E-08	-2.7165E-08	1.1889E-06	-1.2246E-06
-1.6201E-08	-5.5074E-08	-1.5564E-06	-9.9438E-07
-7.0645E-08	-8.9755E-08	-1.4326E-06	1.6113E-06
-1.7038E-07	-7.3633E-08	4.0911E-07	1.8811E-06
-1.8857E-07	-3.8353E-08	1.2391E-06	1.1143E-06
-1.8463E-07	1.1933E-07	1.2522E-06	-4.3584E-07
-1.2296E-07	1.9698E-07	-8.1910E-07	-4.1441E-07
-9.0968E-08	1.9253E-07	-1.8249E-07	1.5170E-06
3.6932E-08	1.1957E-07	1.1664E-06	4.2799E-07
4.9614E-08	6.4474E-08	8.1579E-08	-6.1605E-07
2.4153E-08	-2.9148E-08	-1.1167E-06	3.4820E-07
-1.2168E-08	-1.2580E-07	-1.6497E-07	1.6187E-06
-8.4196E-08	-1.1885E-07	7.6326E-07	7.4968E-07
-1.3141E-07	-8.5553E-08	9.2544E-08	2.9164E-07
-1.7234E-07	-3.9006E-08	-2.9904E-08	9.0011E-07
-1.7433E-07	-1.5502E-08	6.6302E-07	7.4879E-07
-1.9525E-07	-1.2377E-09	4.3587E-07	1.2443E-07
-1.6094E-07	3.4726E-08	-4.6658E-08	-1.8829E-07
-1.8629E-07	4.3754E-08	-1.3499E-06	6.3717E-07
-1.6584E-07	8.4551E-09	3.8661E-07	2.4166E-06
-1.5582E-07	4.2052E-08	1.5693E-06	1.1415E-08
-1.3029E-07	3.3928E-08	-6.3752E-07	-1.9333E-07
-8.3531E-08	8.1417E-08	-4.2054E-07	1.4990E-06
-6.7930E-08	2.3013E-08	1.3610E-06	1.2497E-06
-4.4578E-08	1.0864E-07	6.8097E-07	-1.0171E-06
-1.0330E-08	3.1625E-08	-1.3249E-06	3.5346E-07
-7.2774E-08	4.1000E-08	-9.5688E-08	1.0656E-06
-1.0631E-07	-3.0901E-08	-3.7735E-07	1.1088E-06
-1.4123E-07	-2.1790E-08	6.9560E-07	7.3247E-07
-2.0396E-07	2.6795E-08	-1.4233E-06	3.5249E-07
-1.9233E-07	5.1729E-08	1.4080E-07	3.2529E-06
-1.0494E-07	7.0423E-08	1.7981E-06	5.8079E-07
-7.5511E-08	7.0100E-08	4.0471E-08	9.3599E-07
-5.4916E-08	7.9303E-08	1.2028E-06	9.4396E-07
-5.8527E-08	9.8946E-08	6.0779E-07	4.1616E-07
-5.1829E-08	2.9172E-08	6.3313E-07	2.7514E-07
-5.6591E-08	1.3171E-08	7.3480E-08	7.1558E-07
-8.1838E-08	3.3055E-08	1.0797E-06	4.3018E-07
-1.3285E-07	1.5779E-08	-8.3246E-08	-9.2602E-08
-1.0355E-07	4.5966E-08	3.6327E-07	4.3201E-07
-1.0262E-07	5.5209E-08	-6.8131E-07	-2.1864E-08
-9.4937E-08	2.6406E-08	-1.7615E-07	1.5431E-06
-4.5163E-08	3.5328E-08	3.7451E-07	6.5699E-07
-5.2158E-08	-7.0057E-09	4.0667E-07	1.0344E-06
-5.8428E-08	6.0082E-09	4.8242E-07	2.0360E-08
-7.6491E-08	6.9978E-09	-2.8818E-07	4.5513E-07
-6.9245E-08	2.4663E-08	-4.9542E-07	3.6115E-07
-1.2098E-07	7.9929E-08	-5.9840E-07	1.7441E-06
-1.2215E-07	6.6361E-08	8.0330E-07	9.6307E-07
-5.9196E-08	9.3436E-08	-3.0768E-07	8.2441E-07
-3.2956E-08	2.4971E-08	4.3655E-07	9.1918E-07
-1.6431E-08	-1.7625E-08	-8.9979E-07	7.3652E-07
1.6773E-08	-6.3101E-08	9.6115E-08	2.5736E-06
-5.7506E-08	-2.6847E-08	1.2950E-06	1.1209E-06
-1.1144E-07	-5.5630E-08	3.6050E-07	8.8971E-07
-1.0642E-07	-4.3649E-09	6.5409E-07	9.2616E-07
-1.3689E-07	-3.2169E-08	-7.9487E-08	7.5611E-07
-1.1278E-07	1.7010E-08	2.4292E-07	1.8167E-06
-8.9419E-08	5.0942E-08	9.3833E-07	1.1907E-06
-7.4008E-08	6.4226E-08	6.1765E-07	1.3018E-06
-6.8045E-08	-8.3132E-09	1.1609E-06	9.5742E-07
-8.8988E-08	1.5549E-08	5.5988E-07	7.2894E-07
-8.2958E-08	1.1988E-08	6.6276E-07	8.6204E-07
-2.1393E-08	-1.8125E-08	2.5660E-07	1.2322E-06
-1.1626E-07	-4.6262E-08	1.4989E-06	1.4677E-06
-9.8724E-08	4.0024E-09	1.0595E-06	8.7550E-08
-1.3446E-07	2.4973E-08	4.6280E-07	7.4819E-07
-1.2844E-07	3.4268E-08	4.9253E-07	7.2836E-07
-1.0912E-07	3.6752E-08	8.8994E-07	1.4352E-06
-8.8172E-08	8.1244E-08	1.4462E-06	5.2621E-08
-1.1824E-07	1.0223E-07	-4.1452E-07	5.9518E-07
-1.2606E-07	7.5615E-08	1.2648E-06	2.0741E-06
-8.4507E-08	9.5249E-08	2.0620E-06	7.3601E-08
-7.5831E-08	4.5927E-08	4.7950E-07	-3.6062E-07
-4.8377E-08	1.4066E-08	5.7371E-08	8.5859E-07
-5.8002E-08	1.4964E-08	1.4411E-06	1.2047E-06
-7.3762E-08	1.8850E-08	1.3610E-06	-3.8036E-07
-8.3326E-08	-2.1498E-08	3.1262E-07	2.0870E-07
-7.9344E-08	3.6024E-08	8.8596E-07	2.1608E-07
-8.1973E-08	1.6222E-08	6.2889E-07	2.9547E-07
-1.4386E-07	7.2392E-08	1.1523E-06	-5.9025E-07
-1.1959E-07	7.5098E-08	-1.0149E-06	-4.3992E-07
-1.0532E-07	7.0522E-08	5.0306E-07	1.3178E-06
-9.9929E-08	7.8982E-08	2.8854E-07	-7.1272E-07
-4.0200E-08	9.4214E-08	-7.1043E-07	8.1760E-07
-1.8326E-08	6.0614E-08	-2.8903E-08	5.1238E-07
-4.2237E-08	7.8473E-08	-2.5586E-07	1.6549E-06
-2.3084E-08	2.1245E-08	1.4283E-06	5.7056E-07
-2.7749E-08	4.9641E-09	-5.3799E-07	3.1531E-08
-4.8647E-08	3.4864E-08	1.1248E-07	1.5294E-06
-4.7742E-08	2.4878E-08	5.6879E-07	9.3905E-07
-7.5332E-08	2.9595E-08	8.7011E-07	9.9250E-07
-6.5222E-08	5.0118E-08	8.1728E-07	2.8998E-09
-9.3182E-08	3.4313E-08	-2.8770E-07	2.0463E-07
-2.3270E-08	1.6256E-08	-2.3958E-07	9.4984E-07
-5.6540E-08	2.8488E-08	-2.2621E-07	1.4158E-06
-3.0228E-08	1.2191E-08	1.0198E-06	2.0642E-06
-3.0787E-08	-5.6163E-09	1.5119E-06	3.1738E-07
-7.7882E-08	3.1067E-08	2.9587E-07	7.8794E-07
-5.6281E-08	-2.3122E-08	1.4085E-06	6.2289E-07
-9.2176E-08	1.6967E-09	3.8397E-07	-2.8401E-08
-1.1116E-07	-4.6718E-09	5.2262E-07	4.0559E-07
-1.0982E-07	1.6314E-08	-2.0217E-07	3.9533E-07
-9.8107E-08	4.6761E-08	7.6795E-07	1.2767E-06
-6.0159E-08	4.2510E-08	6.3102E-07	-4.1313E-07
-1.0105E-07	9.2473E-09	-1.0533E-06	6.8075E-07
-5.8082E-08	5.9015E-08	1.2835E-07	2.1708E-06
-6.1989E-08	7.7827E-09	1.5624E-06	1.3464E-06
-6.7077E-08	4.4000E-08	9.5000E-07	1.7538E-07
-5.8537E-08	3.6244E-08	3.5831E-07	5.9901E-07
-4.9649E-08	4.7041E-08	2.9218E-07	8.4453E-07
-2.9996E-08	5.0768E-09	8.0215E-07	1.5447E-06
-3.1731E-08	4.2599E-08	1.8395E-06	5.3180E-07
-1.3630E-07	4.5067E-08	6.4868E-07	-2.9997E-07
-7.5462E-08	5.5098E-08	4.9053E-07	6.1769E-07
-5.4726E-08	3.7338E-08	8.9043E-07	2.0158E-08
-9.6415E-08	6.5799E-08	-4.5190E-09	9.9965E-08
-8.6471E-08	2.9275E-08	2.1881E-07	6.9663E-07
