jMRUI Data Textfile

Filename: Export_to_jmrui.txt

PointsInDataset: 2048
DatasetsInFile: 1
SamplingInterval: 0.250000
ZeroOrderPhase: 0E0
BeginTime: 0E0
TransmitterFrequency: 1.2326E8
MagneticField: 2.8936E0
TypeOfNucleus:  
NameOfPatient:  
DateOfExperiment:  
Spectrometer:  
AdditionalInfo: 
SignalNames:  


Signal and FFT
sig(real)	sig(imag)	fft(real)	fft(imag)
Signal 1 out of 1 in file
2.2599E-06	-1.3495E-07	-2.7918E-06	-1.2533E-07
3.5598E-06	-1.2838E-06	-2.0525E-06	7.0572E-07
2.1066E-06	-2.0683E-06	-1.6429E-06	1.1280E-06
1.1943E-06	-2.3023E-06	-9.6020E-07	6.0361E-07
-2.3419E-07	-2.0501E-06	-1.6632E-06	6.3472E-07
-1.0795E-06	-1.3622E-06	-9.9294E-07	1.3680E-06
-1.5357E-06	-4.0473E-07	-2.9271E-07	4.0437E-07
-1.0890E-06	4.6162E-07	-1.5089E-06	-7.4231E-08
-4.7877E-07	7.2386E-07	-1.5392E-06	1.0441E-06
3.2428E-07	6.0290E-07	-1.2116E-06	8.0638E-07
6.6138E-07	2.5997E-07	-1.3125E-06	1.2498E-06
8.2031E-07	-2.4566E-07	-9.4411E-07	1.2131E-06
5.1752E-07	-5.1856E-07	-8.8368E-07	1.2542E-06
1.7652E-07	-6.9783E-07	-1.1132E-06	1.3443E-06
-1.8117E-07	-6.5538E-07	-3.4723E-07	2.3209E-06
-4.1719E-07	-4.6232E-07	8.3536E-07	9.5901E-07
-5.4156E-07	-2.9311E-07	-5.5152E-07	3.4656E-07
-4.4083E-07	-6.0670E-08	-3.4842E-07	1.6208E-06
-3.9552E-07	-8.3799E-09	1.0225E-06	6.3961E-07
-3.1325E-07	8.7482E-08	-4.8876E-07	-4.8064E-07
-3.4794E-07	1.2070E-07	-7.4484E-07	7.1857E-07
-3.7077E-07	1.7989E-07	-6.7529E-07	4.4265E-07
-4.1279E-07	2.2580E-07	-5.2216E-07	1.0229E-06
-2.6834E-07	2.9475E-07	-5.6839E-07	5.2705E-07
-1.4349E-07	3.1461E-07	-3.1262E-07	1.1953E-06
2.5834E-08	2.8303E-07	-5.2797E-07	2.0253E-07
4.6433E-08	1.5899E-07	-5.4706E-07	1.8997E-06
6.8084E-08	7.2289E-08	1.1047E-06	-1.1088E-07
-5.6588E-08	-2.3769E-08	-1.6384E-06	-1.4544E-07
-1.8518E-07	-2.7503E-08	-5.4094E-07	1.3269E-06
-3.0426E-07	8.7944E-08	-6.5868E-07	6.3019E-07
-3.3833E-07	2.6550E-07	-5.1182E-07	1.2010E-06
-3.0876E-07	4.5052E-07	-2.9049E-07	9.3981E-07
-1.6146E-07	4.6983E-07	-3.7552E-08	9.8703E-07
8.7891E-09	4.2784E-07	-4.2813E-08	6.6730E-08
1.6651E-07	3.3812E-07	-1.5476E-06	3.8642E-07
2.0306E-07	1.8142E-07	-8.1652E-07	1.8969E-06
2.4708E-07	1.7494E-07	-2.6688E-07	1.2746E-06
1.3068E-07	7.3473E-08	1.4666E-07	1.8996E-06
1.1096E-07	1.0312E-07	9.4759E-07	3.6017E-07
7.4633E-08	5.0234E-08	-5.6353E-07	3.2649E-07
1.2651E-07	-5.4028E-09	5.6287E-08	7.7638E-07
9.8805E-08	-6.0031E-08	-4.1068E-07	-1.0746E-07
1.1859E-07	-1.7827E-07	-1.6837E-06	7.3520E-07
1.4090E-09	-2.2908E-07	-5.1503E-07	2.3097E-06
-2.8014E-08	-2.2940E-07	5.4147E-07	9.2599E-07
-1.7779E-07	-1.7438E-07	-4.3185E-07	8.4097E-07
-2.1238E-07	-8.1158E-08	-1.9537E-07	1.2030E-06
-2.3797E-07	7.5509E-08	2.9395E-07	1.2131E-06
-1.5842E-07	2.0566E-07	8.4673E-08	1.6868E-07
-5.0499E-08	1.5724E-07	-7.7734E-07	9.7493E-07
4.2637E-08	1.1964E-08	-1.0122E-07	1.0208E-06
1.9448E-08	-5.1849E-08	-2.3727E-07	1.1294E-06
-7.2512E-08	-1.5749E-07	3.3841E-08	6.3920E-07
-2.1244E-07	-1.8613E-07	-7.3364E-07	9.9917E-07
-3.0033E-07	-8.4843E-08	-1.2599E-07	1.3341E-06
-3.6960E-07	2.7082E-08	-1.1811E-07	1.1019E-06
-2.9929E-07	1.4835E-07	-3.9747E-07	1.2254E-06
-2.3503E-07	2.1503E-07	4.5544E-07	2.0513E-06
-8.3902E-08	2.3632E-07	1.1171E-06	2.1132E-07
4.8329E-09	1.6321E-07	-5.6299E-07	5.0811E-07
4.6507E-08	3.5668E-08	4.2643E-08	9.6117E-07
-5.2815E-08	-1.4197E-07	-4.7287E-08	1.0304E-06
-1.8756E-07	-1.1366E-07	2.5433E-07	5.1922E-07
-3.3253E-07	-8.1731E-08	-4.1013E-07	8.5075E-07
-3.1385E-07	3.0450E-08	-9.6036E-08	5.7129E-07
-2.7163E-07	1.7088E-07	-8.7047E-07	1.5139E-06
-1.9979E-07	2.6949E-07	9.1147E-07	1.4633E-06
-1.6739E-07	2.1912E-07	1.7310E-07	2.7508E-07
-5.4210E-08	1.5430E-07	-4.4101E-07	4.5829E-07
-4.0045E-08	4.6294E-08	-8.0027E-07	1.7931E-06
-5.3928E-08	1.8117E-08	1.3878E-06	1.4867E-06
-1.7376E-07	4.3245E-08	4.1100E-07	-2.9057E-07
-1.9517E-07	5.8445E-08	-5.5143E-07	-1.4722E-07
-1.7140E-07	1.3613E-07	-1.8383E-06	1.0216E-06
-1.4606E-07	2.2697E-07	4.7401E-09	2.4630E-06
-8.2124E-08	1.8284E-07	3.6285E-07	8.7912E-07
-3.2170E-08	1.3549E-07	-1.4269E-07	1.3707E-06
-2.1803E-08	1.3546E-07	3.6492E-07	1.0417E-06
-2.2346E-08	7.5186E-08	-3.2458E-07	8.9708E-07
-1.4123E-07	5.8638E-08	-8.6016E-08	1.7419E-06
-1.4928E-07	4.5777E-08	5.3972E-07	1.4017E-06
-1.4697E-07	1.3118E-07	7.6952E-07	1.2153E-06
-1.0153E-07	1.7699E-07	3.9728E-07	2.7846E-07
-2.0590E-08	1.7180E-07	-1.1365E-07	1.3250E-06
3.4630E-08	1.5681E-07	5.3996E-07	5.5751E-07
9.3582E-08	6.9369E-08	-1.7726E-07	1.6813E-06
3.8509E-08	5.3159E-08	1.9218E-06	2.5302E-07
-6.1849E-08	-1.4090E-07	-1.3710E-06	-4.7936E-07
-1.6390E-07	-1.4064E-07	-9.3524E-08	2.2468E-06
-2.5059E-07	-9.4475E-08	8.9626E-07	6.3373E-07
-2.4559E-07	3.9288E-08	7.7114E-08	1.8922E-07
-2.0856E-07	1.8844E-07	-7.9660E-07	9.9595E-07
-1.0899E-07	2.2982E-07	6.2966E-07	1.6409E-06
-2.6786E-08	2.0174E-07	6.5150E-07	4.3705E-07
4.2420E-08	1.8222E-07	2.9448E-07	-2.3258E-08
9.2236E-08	5.2138E-08	-1.3091E-06	2.9404E-07
2.5601E-08	-7.3162E-08	-3.3533E-07	2.1186E-06
-7.0426E-08	-1.4599E-07	8.3689E-07	1.0994E-06
-1.4755E-07	-1.1530E-07	2.8976E-07	-5.4902E-09
-1.8473E-07	-1.0384E-07	-1.3812E-06	7.9441E-07
-2.0314E-07	-2.5358E-08	2.7725E-07	2.3145E-06
-1.8329E-07	2.8201E-08	8.1189E-07	5.1950E-07
-1.5177E-07	3.9171E-08	-3.3849E-07	5.0542E-07
-1.7817E-07	5.7827E-08	-5.9417E-07	1.4735E-06
-1.7575E-07	6.2665E-08	8.0621E-07	1.6990E-06
-1.7874E-07	6.4025E-08	5.4520E-07	4.4529E-07
-1.9713E-07	5.9893E-08	3.1428E-07	5.8802E-07
-1.5419E-07	1.2329E-07	-5.6698E-07	6.8906E-08
-1.3318E-07	1.2844E-07	-8.3527E-07	1.8463E-06
-1.1592E-07	1.2315E-07	9.6168E-07	1.3413E-06
-6.0897E-08	9.0881E-08	-2.2727E-07	2.1739E-07
-3.9723E-08	4.2710E-09	-2.1990E-07	1.6250E-06
-7.1237E-08	-2.9069E-10	3.7144E-07	3.2613E-07
-1.4506E-07	-2.0439E-09	-1.4011E-06	1.5589E-06
-2.1436E-07	3.2683E-08	1.1908E-06	2.3907E-06
-2.1934E-07	5.7951E-08	8.0919E-07	2.0754E-07
-2.2249E-07	1.0012E-07	-9.9706E-08	5.9669E-07
-1.4650E-07	1.2710E-07	-4.1211E-07	1.1403E-06
-7.4155E-08	1.4095E-07	5.2253E-07	1.3424E-06
-9.9355E-09	1.0755E-07	-1.4664E-08	7.7370E-07
-1.8726E-08	8.0055E-08	5.4175E-07	1.2009E-06
-5.8826E-08	4.5394E-08	1.7790E-08	2.6279E-07
-7.6242E-08	4.5914E-08	-2.4739E-07	1.0863E-06
-8.7415E-08	-1.4742E-08	-3.6576E-08	8.6913E-07
-1.4488E-07	8.3990E-09	-1.1653E-07	8.8849E-07
-1.8144E-07	8.5295E-08	-5.5695E-07	1.0717E-06
-1.6210E-07	1.0680E-07	4.4664E-08	1.4717E-06
-1.4907E-07	1.4881E-07	-3.9779E-07	1.1675E-06
-1.0078E-07	1.5280E-07	3.5555E-07	2.0277E-06
-7.5353E-08	2.5278E-08	6.9982E-07	7.1626E-07
-6.0806E-08	2.9349E-08	-2.6853E-07	8.2437E-07
-1.3756E-07	8.8206E-08	-2.8033E-07	1.4929E-06
-1.1947E-07	7.4162E-08	4.0273E-07	1.4377E-06
-9.1000E-08	8.5683E-08	-1.6538E-07	1.3061E-06
-5.0688E-08	1.2538E-07	8.8740E-07	1.9855E-06
-5.4593E-08	8.7880E-08	1.0527E-06	2.9312E-07
-2.7249E-08	7.2138E-08	-3.5137E-07	3.9640E-07
-1.6876E-08	2.5446E-08	-4.2701E-07	1.5383E-06
-2.3521E-08	-4.5397E-08	8.2790E-07	1.4209E-06
-7.7417E-08	-5.8809E-08	1.5776E-07	4.3394E-07
-1.1395E-07	-6.2135E-08	-2.0865E-07	9.8818E-07
-1.2974E-07	9.5882E-09	-3.2022E-07	1.4473E-06
-1.4019E-07	2.7672E-08	8.1281E-07	1.3422E-06
-1.7685E-07	5.1091E-08	-4.7087E-07	5.4329E-07
-1.2704E-07	7.3163E-08	3.1109E-07	2.1457E-06
-1.2027E-07	1.2018E-07	7.0599E-07	4.9856E-07
-7.9241E-08	1.1768E-07	3.3430E-08	1.0227E-06
-5.5522E-08	7.3712E-08	-1.4808E-07	3.7965E-07
-4.8409E-08	2.5559E-08	-8.4918E-07	1.6149E-06
-6.0491E-08	9.4837E-09	2.1076E-07	1.7601E-06
-1.1244E-07	-2.3153E-08	4.3841E-07	1.4642E-06
-9.7712E-08	-3.2976E-09	1.1463E-07	8.7115E-07
-1.1699E-07	4.2758E-08	-1.8748E-07	1.7448E-06
-1.7158E-07	9.4119E-08	6.5231E-07	1.3924E-06
-1.1980E-07	8.3341E-08	6.2148E-08	1.1644E-06
-8.6952E-08	8.9619E-08	3.3879E-07	1.7005E-06
-9.0207E-08	1.1140E-07	8.9053E-07	1.0832E-06
-9.1285E-08	1.3644E-07	4.8048E-09	7.6833E-07
-8.8848E-08	9.2365E-08	2.6518E-07	1.3742E-06
-8.3543E-08	4.2831E-08	-1.9045E-10	9.6463E-07
-3.7686E-08	1.6971E-08	4.3454E-08	1.6893E-06
-6.9493E-08	7.6798E-09	3.0560E-07	1.7033E-06
-6.0209E-08	-1.3781E-08	1.3354E-06	1.8907E-06
-8.1908E-08	1.4772E-08	1.3025E-06	3.0068E-07
-1.0682E-07	2.1510E-08	6.6742E-07	3.2405E-07
-9.8503E-08	4.2609E-08	-2.1872E-07	-2.3112E-07
-8.6723E-08	6.9991E-08	-5.1332E-07	1.3050E-06
-7.0991E-08	8.3036E-08	2.6062E-07	4.6575E-07
-6.9899E-08	1.2736E-07	-8.8111E-07	8.6801E-07
-7.4433E-08	1.1230E-07	-5.0011E-07	1.4261E-06
-6.2925E-08	1.2912E-07	-1.8051E-07	1.8771E-06
-1.0814E-08	1.0146E-07	3.8745E-07	1.3215E-06
3.4005E-08	6.5485E-08	6.0883E-08	1.4187E-06
1.1621E-08	9.1075E-09	4.8558E-07	1.0411E-06
-1.8247E-08	-4.6380E-09	-1.5793E-07	7.1520E-07
-2.1377E-08	2.9458E-08	-7.7336E-07	1.1775E-06
-1.0960E-08	5.1523E-08	-4.7762E-08	2.2278E-06
-6.4598E-08	8.6315E-08	5.0783E-07	8.1525E-07
-3.5003E-08	7.5069E-08	-9.9311E-07	1.4902E-06
-5.4973E-08	6.1360E-08	2.3792E-07	2.3124E-06
-3.8232E-08	8.9788E-08	6.3658E-07	1.5646E-06
-7.5085E-08	5.6039E-08	3.0225E-07	9.0785E-07
-2.6678E-08	1.8387E-08	-4.9072E-07	1.4276E-06
-7.5943E-08	5.3745E-08	2.5266E-08	1.7555E-06
-4.2710E-08	9.0271E-09	-6.9760E-08	1.7937E-06
-8.5062E-08	9.0632E-09	1.9512E-07	1.8166E-06
-6.4309E-08	4.7431E-08	2.5966E-07	2.1177E-06
-9.4231E-08	2.9485E-08	9.4189E-07	1.4135E-06
-7.5416E-08	4.9966E-08	-3.1720E-07	1.3882E-06
-9.8635E-08	7.4242E-08	6.0108E-07	2.2970E-06
-9.0970E-08	4.0878E-08	6.6639E-07	1.3513E-06
-5.3598E-08	6.2915E-08	4.0286E-07	1.5589E-06
-4.1487E-08	8.9944E-08	1.5760E-07	1.6449E-06
-8.4905E-08	3.9167E-08	9.3112E-07	2.1916E-06
-8.4295E-08	5.5736E-08	1.0296E-06	7.7882E-07
-3.9781E-08	1.0783E-08	-1.6721E-07	1.5118E-06
-3.2882E-08	7.4140E-08	1.1699E-06	1.8927E-06
-6.3573E-08	3.6228E-09	8.6598E-07	2.6443E-07
-4.6993E-08	1.0525E-07	-9.0834E-07	7.9057E-07
-5.6966E-08	1.0143E-07	-5.9324E-07	2.4223E-06
-6.5960E-08	7.8623E-08	4.1652E-07	2.7549E-06
-9.6577E-08	7.0600E-08	1.6693E-06	2.4525E-06
-3.5862E-08	3.2072E-08	1.4852E-06	6.7856E-07
-4.0131E-08	3.5847E-08	2.0736E-07	1.2586E-06
