jMRUI Data Textfile

Filename: Export_to_jmrui.txt

PointsInDataset: 2048
DatasetsInFile: 1
SamplingInterval: 0.250000
ZeroOrderPhase: 0E0
BeginTime: 0E0
TransmitterFrequency: 1.2326E8
MagneticField: 2.8936E0
TypeOfNucleus:  
NameOfPatient:  
DateOfExperiment:  
Spectrometer:  
AdditionalInfo: 
SignalNames:  


Signal and FFT
sig(real)	sig(imag)	fft(real)	fft(imag)
Signal 1 out of 1 in file
5.8381E-07	-1.5086E-07	6.8171E-07	7.1966E-07
8.3643E-07	-3.7284E-07	3.1315E-07	-3.2381E-07
5.6159E-07	-5.7763E-07	-8.0176E-08	-5.1407E-07
2.4629E-07	-6.7715E-07	-5.9121E-07	-3.1764E-07
-1.9615E-08	-5.4017E-07	-7.8350E-07	-3.6696E-08
-1.9557E-07	-2.9856E-07	-8.4934E-07	6.3870E-07
-2.2513E-07	-1.1203E-07	-9.0413E-08	9.5474E-07
-1.1991E-07	3.7746E-08	3.7569E-07	1.8415E-07
4.5423E-08	4.4114E-08	-9.3792E-07	-1.1941E-08
2.1418E-07	-4.0661E-08	-3.4365E-07	1.9283E-06
2.7125E-07	-1.1675E-07	1.4150E-06	7.8024E-07
2.1268E-07	-2.4452E-07	6.0986E-07	-2.4362E-07
1.2945E-07	-2.7363E-07	-1.0891E-07	-9.4966E-08
1.4092E-08	-2.9952E-07	-4.5078E-08	7.3497E-07
-8.4137E-08	-2.3065E-07	4.9387E-07	5.8073E-07
-1.1907E-07	-9.3836E-08	1.0088E-06	6.1461E-07
-1.0422E-07	8.0685E-09	9.3766E-07	-8.6094E-07
-6.4936E-08	-8.7062E-10	-4.0411E-07	-1.2383E-07
8.6929E-09	-6.4164E-09	2.8017E-07	8.4852E-08
4.7055E-08	-6.2249E-08	6.0209E-08	3.9531E-07
-1.0476E-08	-8.9081E-08	8.6183E-07	-3.1680E-07
-6.0436E-08	-8.4856E-08	-6.7636E-07	-3.1043E-07
-1.4478E-07	-5.8289E-08	2.1012E-07	6.8588E-07
-9.7871E-08	-2.6237E-08	1.1969E-07	1.4373E-07
-7.7144E-08	-8.7914E-09	5.0976E-07	4.6498E-07
8.3312E-09	3.1112E-08	3.8467E-07	-7.8439E-08
1.9567E-08	2.4355E-08	3.4397E-07	6.2825E-08
5.8102E-08	-1.5622E-08	3.6345E-08	1.7160E-07
3.2300E-08	-5.5063E-08	1.0421E-06	3.7631E-07
2.0978E-09	-4.5426E-08	2.4639E-07	-1.2780E-06
-7.3855E-08	-8.0971E-09	-9.8458E-07	5.0984E-07
-7.2778E-08	4.8559E-08	7.9267E-07	6.4502E-07
-7.7298E-08	1.2544E-07	1.2439E-07	-8.8400E-08
5.0014E-10	1.0356E-07	6.3545E-07	5.3673E-07
5.1834E-08	1.2237E-07	5.6929E-07	-4.5934E-07
9.8502E-08	7.7916E-08	1.3118E-07	1.9718E-07
1.1811E-07	3.3741E-08	6.7675E-07	-2.1029E-07
8.4291E-08	-9.5684E-10	1.4934E-07	-2.7677E-07
1.0615E-07	1.6836E-08	-1.9975E-08	-2.4052E-07
5.3903E-08	1.8002E-08	1.5459E-07	7.4449E-07
8.3383E-08	-1.8987E-08	1.5148E-06	-7.3843E-07
1.2714E-07	6.3434E-09	-1.1996E-06	-1.2147E-06
1.0698E-07	3.1337E-09	-4.8929E-07	1.1536E-06
1.1331E-07	-6.2387E-08	2.6705E-07	5.2085E-07
1.1396E-07	-1.2142E-07	9.1735E-07	9.6780E-07
1.0825E-07	-1.1153E-07	1.3226E-06	-5.5747E-07
4.2746E-09	-1.3427E-07	2.1130E-07	-3.6764E-07
-1.5116E-08	-6.0381E-08	7.7440E-07	-2.8848E-08
-4.8258E-08	-1.0052E-08	1.1559E-06	-8.7752E-07
2.7995E-08	-2.2208E-09	-1.3446E-07	-1.8476E-06
1.5459E-08	7.7458E-09	-1.1054E-06	-4.3189E-07
9.1557E-08	2.1314E-08	-3.6582E-07	-3.5229E-07
7.4899E-08	-3.5540E-08	-1.2547E-06	-1.3730E-07
5.7852E-08	-5.6248E-08	-8.5709E-07	1.1175E-06
2.3678E-08	-8.7391E-08	4.1040E-07	1.4797E-06
-1.2650E-08	-6.1420E-08	1.5075E-06	4.3856E-08
-7.6931E-08	-5.0367E-08	-1.1738E-07	-9.7184E-07
-7.8527E-08	-2.5302E-09	-6.4067E-07	3.5259E-07
-1.9939E-08	2.8823E-08	-4.8463E-08	8.4189E-07
9.1436E-09	9.5314E-09	8.0262E-07	7.2181E-07
4.4213E-08	2.9165E-08	5.4493E-07	5.5405E-08
4.8468E-08	-3.4245E-09	9.4497E-07	5.8236E-07
2.1361E-08	-3.0947E-08	1.3710E-06	-8.2955E-07
-2.2779E-08	-7.3843E-08	-3.4769E-08	-1.0378E-06
-3.2902E-08	-4.7370E-08	-3.7524E-07	-3.7674E-07
-7.8243E-08	-3.0957E-08	-3.0301E-07	2.3447E-07
-1.2927E-07	-1.6516E-08	1.9545E-07	4.3903E-07
-8.7154E-08	-4.7095E-10	7.5988E-07	3.0096E-07
-1.0541E-07	3.9004E-08	7.0709E-07	-5.0394E-07
-5.5224E-08	8.4810E-09	3.3427E-07	-4.5257E-07
-1.3937E-08	1.0058E-08	-2.1748E-07	-7.3167E-07
3.4578E-09	4.9368E-08	-1.4790E-07	7.6985E-07
-1.2986E-08	7.5691E-08	1.4125E-06	-6.6019E-07
2.0848E-09	5.8236E-08	-7.4026E-07	-1.0576E-06
-1.1245E-08	6.6823E-08	-1.6708E-07	1.3317E-07
-6.2762E-09	7.2517E-08	-4.7133E-07	6.3005E-08
2.9225E-08	4.0821E-08	7.2952E-07	7.1962E-07
5.3522E-08	1.1967E-08	7.6191E-07	-8.8623E-07
4.8605E-08	-3.7871E-08	-1.1927E-07	-7.5885E-07
1.0794E-09	9.5242E-09	-6.6835E-07	-5.6208E-07
-4.9207E-08	1.4361E-08	-4.4043E-07	4.4206E-07
-3.8078E-08	3.0537E-08	1.5300E-07	3.3846E-08
-1.2650E-08	1.0484E-07	-4.2308E-08	7.0594E-08
2.0940E-08	1.1670E-07	8.4880E-08	5.4595E-08
-2.1157E-09	9.4849E-08	4.3144E-07	2.6139E-07
6.5084E-08	1.0666E-07	9.4791E-07	-8.5585E-07
6.9772E-08	4.6074E-08	-7.4848E-07	-1.5463E-06
6.1928E-08	5.9404E-08	-1.4314E-06	2.4443E-07
3.1647E-08	-7.6997E-09	6.0233E-08	5.3038E-07
-1.2842E-08	-5.8768E-08	-3.1523E-07	-4.5578E-07
7.4450E-09	-4.7900E-09	-8.0409E-07	2.1740E-07
-4.7386E-08	5.0470E-09	-5.6689E-07	4.0053E-07
-6.6515E-08	2.7014E-08	-5.4360E-07	9.3267E-07
-1.6916E-08	7.4059E-08	5.0212E-07	1.0895E-06
3.2933E-08	5.9164E-08	7.5450E-07	-8.2450E-08
6.2898E-08	6.8285E-08	-2.1692E-07	-6.0036E-08
3.9179E-08	3.1466E-08	3.0246E-07	2.6070E-07
3.6737E-08	2.5171E-08	-3.6318E-07	-3.3038E-07
2.8513E-08	-2.7047E-08	-2.9810E-07	9.2529E-07
7.0742E-10	-2.3949E-09	5.2595E-07	4.0485E-08
3.8393E-09	-1.6136E-08	-6.0904E-07	2.3943E-07
-4.6604E-08	-1.3256E-08	1.1295E-07	1.0597E-06
-5.7773E-09	1.7653E-08	5.7004E-07	7.4102E-07
-2.6936E-08	-2.4955E-08	9.4810E-07	5.3781E-07
-6.2388E-09	3.1897E-08	1.1723E-06	-9.3582E-08
-3.8814E-08	2.2095E-08	7.8187E-07	-9.4608E-07
5.6450E-09	-1.6765E-08	-4.9238E-07	-9.6058E-07
2.6954E-08	2.4641E-09	-9.0020E-07	3.0088E-07
-4.4957E-08	1.2486E-08	1.1791E-07	9.8836E-07
-4.8052E-08	4.3005E-08	7.8671E-07	3.5696E-07
-5.9786E-08	4.2420E-08	9.3836E-07	-7.6695E-08
-2.0354E-08	3.4288E-08	4.5242E-07	-1.2867E-06
9.7908E-09	3.5597E-08	-1.2065E-06	-2.1828E-07
-2.9954E-08	5.1592E-08	3.9140E-07	6.3703E-07
-4.7816E-10	1.3462E-08	-1.0035E-07	-7.2901E-07
-1.4201E-08	6.3027E-08	-7.2763E-07	2.5959E-07
-4.2988E-08	5.6101E-09	-4.3694E-07	5.5461E-07
-3.4969E-08	7.3850E-08	1.4989E-07	1.1446E-06
-3.1722E-08	2.9296E-08	9.3243E-07	3.6370E-07
3.1780E-09	7.3030E-08	4.2599E-07	-1.4720E-07
-4.9750E-08	8.5280E-08	1.7081E-07	2.3889E-07
-1.5215E-08	9.9631E-08	1.0395E-06	1.2072E-07
-3.0413E-08	3.7820E-08	3.2368E-07	-1.1044E-06
-1.2816E-08	4.1258E-08	-2.4656E-07	-2.3788E-07
1.6271E-08	5.7494E-08	-2.5142E-07	-8.5601E-07
-5.7223E-10	4.5871E-08	-1.2760E-06	2.9810E-07
-1.0648E-08	4.5056E-08	-4.3739E-08	6.7250E-07
1.0355E-08	5.1842E-08	-2.6087E-07	5.2515E-07
1.4807E-08	2.8861E-08	5.0528E-07	4.1244E-07
-2.2189E-08	7.6210E-08	-3.7806E-07	-1.4779E-07
-2.7215E-08	5.2842E-08	-1.3866E-07	9.9975E-07
-4.1332E-08	8.7697E-08	5.9361E-07	3.7012E-07
-3.8796E-08	6.8926E-08	1.9344E-07	2.1701E-07
-1.2857E-08	4.6548E-08	3.8426E-07	1.8574E-07
-5.4911E-09	6.3973E-08	-1.6919E-08	-7.8732E-08
-1.9190E-09	4.4704E-08	-1.9163E-07	5.9261E-07
8.8384E-09	1.8152E-08	5.5189E-07	7.0116E-07
2.4873E-08	2.7882E-08	8.3716E-07	8.5613E-08
4.2812E-08	2.0571E-08	2.7164E-07	-5.8610E-07
-7.1128E-09	1.3745E-08	-6.2878E-07	1.9133E-07
2.3804E-09	6.5664E-08	3.4217E-07	8.5734E-07
-1.3922E-08	2.0850E-08	4.1478E-07	1.3130E-07
-2.7406E-08	-8.0902E-10	3.5407E-07	6.0621E-07
-4.2636E-08	1.4069E-08	9.0963E-07	1.0761E-07
-7.0163E-09	3.7543E-08	5.8263E-07	1.0569E-07
-2.1993E-08	2.3901E-08	1.3539E-06	-6.7230E-07
-7.4011E-08	5.3125E-08	-8.3961E-07	-1.5289E-06
-5.1896E-08	2.5854E-08	-6.8912E-07	1.1667E-06
-9.1839E-08	4.1933E-11	9.3772E-07	-1.2527E-07
-3.6159E-08	3.8415E-08	-1.9491E-07	1.2929E-08
-2.3059E-08	2.3576E-08	8.3452E-07	-3.5455E-07
-5.2289E-08	-8.8356E-09	-8.5206E-07	-1.0149E-06
-3.6753E-08	5.8869E-08	-9.3877E-07	7.0920E-07
-7.3151E-08	5.2918E-08	9.4103E-08	7.2534E-07
-5.5074E-08	6.0751E-08	-6.6410E-08	1.4296E-07
-5.1772E-08	5.4386E-08	-3.8336E-07	1.0917E-06
-2.1577E-08	6.4961E-08	1.0867E-06	9.3403E-07
-1.9840E-08	1.0011E-07	7.5576E-07	1.9638E-07
-4.6409E-08	7.7570E-08	1.2956E-06	-2.8301E-07
-3.2717E-08	7.7965E-08	-3.1981E-07	-1.1052E-06
-8.8542E-09	5.3637E-08	-3.9237E-07	5.8694E-07
2.4697E-10	5.3031E-08	2.7489E-07	3.6063E-07
-2.0713E-08	3.8844E-08	8.4642E-07	3.5441E-07
1.7900E-09	6.5478E-08	2.6392E-07	-9.7117E-07
-3.7633E-08	-2.8122E-10	-6.7071E-07	6.0835E-07
-2.4992E-08	6.0671E-08	1.1886E-06	4.8960E-07
-6.7834E-08	3.9351E-08	4.5531E-07	-8.7673E-07
-6.8485E-08	3.3281E-08	-1.8724E-07	-1.3504E-07
-8.8599E-08	3.9021E-08	5.0165E-07	-2.4317E-07
-6.2832E-08	8.4386E-08	-2.9122E-07	-9.9052E-07
5.1400E-09	8.6747E-08	-9.6951E-07	3.6480E-08
-3.4667E-08	7.2330E-08	-2.7704E-07	4.7665E-07
4.6937E-09	9.6668E-08	-1.2564E-07	1.4900E-07
1.6773E-08	2.9504E-08	-4.4676E-07	3.3617E-07
4.7635E-08	8.2050E-08	-5.7642E-08	6.4523E-07
-6.7682E-09	3.7946E-08	-2.9782E-08	6.4149E-07
-9.8343E-09	3.3369E-08	8.0551E-07	5.7899E-07
-2.6187E-08	2.5587E-08	-4.1431E-08	-4.9238E-07
-1.6528E-08	6.6598E-08	-1.3039E-07	1.0516E-06
-3.7374E-08	7.3596E-08	9.4047E-07	-3.1048E-08
-2.0611E-08	7.6399E-08	-2.7590E-08	1.0079E-07
-1.2521E-08	5.3962E-08	5.7563E-07	-1.7485E-07
-8.4886E-09	3.7050E-08	-5.4228E-07	-1.7159E-07
2.7160E-08	5.4793E-08	1.2968E-08	6.4815E-07
-1.1698E-09	4.8760E-08	1.1238E-07	3.6922E-07
-1.3686E-08	2.0135E-08	4.2392E-07	7.3402E-07
-2.3471E-08	2.1730E-08	1.1437E-06	1.4939E-07
-5.4299E-08	-1.0277E-08	5.1134E-07	-7.9015E-07
-2.4561E-08	3.0307E-08	4.3391E-08	-3.0820E-07
-1.8723E-08	4.6178E-08	-2.5944E-07	-8.0286E-07
-9.9389E-08	4.6922E-08	-9.0315E-07	7.3653E-07
-9.9844E-09	3.6248E-08	1.1440E-06	1.5700E-07
-4.2886E-08	7.3224E-08	-7.2464E-07	-1.0444E-06
-2.1058E-08	6.2378E-08	-6.7140E-07	7.6521E-07
-1.3027E-08	4.3502E-08	1.5244E-07	1.8296E-07
-2.2697E-08	4.1467E-08	-3.7573E-07	-6.5196E-08
-3.7614E-08	5.6882E-08	-7.1814E-07	4.2448E-07
-2.1502E-08	5.1833E-08	-4.6080E-07	9.0906E-07
-2.4417E-08	9.7162E-08	1.4333E-07	1.3417E-06
-5.7366E-08	7.9136E-08	9.5569E-07	3.6729E-07
-4.2545E-08	5.1997E-08	-1.6504E-07	1.6139E-07
-2.5063E-08	4.5200E-08	3.3308E-07	6.2841E-07
-5.3947E-08	6.6494E-08	3.2880E-08	5.2433E-07
-9.8306E-09	8.1944E-08	7.9409E-07	6.1217E-07
