jMRUI Data Textfile

Filename: Export_to_jmrui.txt

PointsInDataset: 2048
DatasetsInFile: 1
SamplingInterval: 0.250000
ZeroOrderPhase: 0E0
BeginTime: 0E0
TransmitterFrequency: 1.2326E8
MagneticField: 2.8936E0
TypeOfNucleus:  
NameOfPatient:  
DateOfExperiment:  
Spectrometer:  
AdditionalInfo: 
SignalNames:  


Signal and FFT
sig(real)	sig(imag)	fft(real)	fft(imag)
Signal 1 out of 1 in file
9.4308E-07	-1.1921E-07	-7.2537E-07	5.8353E-07
1.2884E-06	-5.0753E-07	4.8473E-07	9.9453E-07
8.1174E-07	-8.0265E-07	-5.7788E-08	-6.3494E-07
4.6730E-07	-9.1546E-07	-7.8375E-07	8.1091E-07
2.2392E-08	-7.4187E-07	2.2629E-07	5.8848E-08
-2.9081E-07	-5.1853E-07	-8.9481E-07	5.9713E-07
-3.7505E-07	-2.0776E-07	3.1634E-07	4.9411E-07
-2.2594E-07	3.3233E-08	-9.4485E-07	4.6523E-07
-2.5200E-08	1.0474E-07	2.7468E-07	1.2650E-06
2.7144E-07	3.2525E-09	-1.3200E-07	8.3313E-07
3.5669E-07	-1.5739E-07	1.4849E-06	1.2467E-06
3.2120E-07	-3.2782E-07	6.9244E-07	-1.1143E-06
1.4752E-07	-4.0775E-07	-4.2581E-07	3.1017E-07
1.9449E-08	-3.9977E-07	3.4273E-07	2.3209E-10
-1.3237E-07	-3.0058E-07	-2.1878E-07	-3.1641E-08
-1.1295E-07	-1.8189E-07	-3.2647E-07	1.7905E-07
-8.8063E-08	-5.9551E-08	-2.9213E-07	4.8060E-07
-4.8228E-08	-3.2518E-08	-3.8297E-07	7.8718E-07
-1.9555E-08	-8.8529E-08	6.8774E-07	1.2730E-06
7.0309E-08	-1.3517E-07	8.6234E-07	-1.8847E-07
-5.7643E-08	-1.4167E-07	7.8001E-09	2.3072E-07
-1.0297E-07	-1.1257E-07	5.6532E-07	1.2408E-07
-1.4109E-07	-3.2820E-08	8.3286E-09	-1.8013E-07
-1.1318E-07	5.3735E-08	1.5066E-08	4.2703E-07
-8.4107E-08	3.6968E-08	6.5579E-07	-7.3732E-08
-2.0849E-08	6.3184E-08	-4.3781E-07	-4.3281E-07
3.7615E-08	5.2997E-08	2.0047E-08	5.5080E-07
8.0340E-08	-4.0520E-08	-1.5223E-07	-4.5976E-07
5.0806E-08	-5.6926E-08	-5.7666E-07	8.4672E-07
-3.5847E-08	-2.6281E-08	6.6901E-07	-5.0326E-09
-6.0910E-08	2.1914E-08	-9.4647E-07	-4.0457E-07
-7.8743E-08	8.1808E-08	-9.9408E-07	1.1088E-06
-9.1330E-08	1.1424E-07	1.3523E-07	1.5012E-06
-3.1728E-08	1.6201E-07	6.3827E-07	6.9115E-07
9.3262E-08	1.4794E-07	2.2232E-07	7.2432E-07
1.7433E-07	7.4502E-08	8.0175E-07	8.0368E-07
1.7193E-07	1.2333E-08	1.0076E-06	2.0131E-07
1.2945E-07	-2.8475E-08	6.5700E-07	-4.5438E-07
1.0979E-07	-1.1548E-08	-9.2005E-08	-2.4749E-07
7.4924E-08	3.7478E-08	6.8538E-08	-1.1968E-08
6.1525E-08	2.6210E-08	-3.1239E-07	-1.3454E-07
1.6078E-07	1.7278E-09	-4.4995E-07	4.7493E-07
1.1634E-07	-1.0027E-08	6.6992E-08	6.0249E-07
2.1610E-07	-8.5913E-08	1.5990E-08	2.0497E-07
1.2911E-07	-1.2890E-07	-3.5008E-07	4.2238E-07
7.3582E-08	-1.9473E-07	-3.2257E-07	8.1471E-07
2.9701E-08	-1.0833E-07	7.2345E-08	1.2451E-06
-4.9038E-08	-1.2704E-07	7.3599E-07	9.8263E-07
-3.8618E-08	-4.0413E-08	7.0409E-07	5.5294E-07
-2.4220E-09	2.2918E-08	7.3810E-07	4.9649E-07
3.7876E-08	2.0416E-08	7.9831E-07	1.1134E-07
9.5673E-08	1.8723E-08	3.9848E-07	5.8550E-08
9.8090E-08	-6.1264E-08	6.9543E-07	1.9810E-08
1.0520E-07	-8.9745E-08	-2.9261E-08	-6.1460E-07
-7.2727E-09	-7.1081E-08	-5.0262E-07	4.2475E-07
-6.0423E-08	-9.2609E-08	4.4090E-08	3.0204E-07
-9.4739E-08	-6.5999E-08	-6.1645E-07	7.2005E-07
-1.1199E-07	4.9908E-08	5.0426E-07	1.4828E-06
-3.5885E-08	7.3435E-08	8.2145E-07	2.9982E-07
1.5218E-08	2.4047E-08	1.6651E-07	7.8926E-07
9.2341E-08	4.0085E-09	1.1507E-06	5.6124E-07
1.0283E-07	-2.3738E-08	2.4562E-07	6.7492E-08
1.3546E-08	-7.1206E-08	7.7927E-07	7.3875E-07
-2.1644E-10	-1.1017E-07	4.2911E-07	3.5038E-08
-6.1069E-08	-6.7007E-08	7.9245E-07	1.0374E-06
-5.5152E-08	-2.8401E-09	1.4188E-06	-1.8768E-07
-1.3542E-07	-3.4849E-09	6.4553E-07	-2.7272E-07
-8.2618E-08	6.2120E-08	3.8709E-07	-1.5195E-07
-6.2633E-08	9.1938E-08	1.1896E-06	2.1656E-07
-5.1102E-08	6.4209E-08	5.1017E-07	-1.7781E-06
-1.8071E-09	5.5042E-08	-1.0996E-06	1.7105E-07
-1.3285E-08	4.1475E-08	3.7364E-07	-4.3991E-08
-5.7415E-09	6.5003E-08	-6.8581E-07	4.8984E-07
4.5202E-08	6.3959E-08	9.3085E-07	3.8025E-07
9.9829E-09	5.8801E-08	-5.6446E-07	-2.5710E-07
2.5222E-08	5.3100E-08	1.2398E-07	1.1883E-06
-1.4229E-09	2.9836E-08	8.8436E-07	5.5383E-07
2.3133E-08	-1.3289E-08	9.9219E-07	-2.9105E-07
1.0109E-08	1.5447E-08	-3.6082E-07	-3.9065E-07
-1.7394E-08	-1.4935E-08	3.3586E-08	8.2165E-07
-2.7124E-08	3.7672E-08	6.9101E-07	5.8881E-07
-5.9153E-08	8.6845E-08	1.1604E-06	-1.7472E-08
-6.4982E-08	1.0283E-07	2.5199E-07	-7.1534E-07
9.4474E-09	1.1470E-07	-8.1217E-08	3.8129E-08
3.4059E-08	1.4490E-07	1.2671E-07	1.2149E-07
1.0389E-07	1.1295E-07	1.8624E-07	1.7028E-07
7.5097E-08	4.1994E-08	2.5366E-07	3.9875E-07
6.9505E-08	-2.8779E-09	9.6169E-07	-2.6732E-08
1.2307E-08	-5.8831E-08	-3.6735E-08	-7.9152E-07
-1.3797E-08	-3.1008E-08	-3.6194E-07	3.0516E-07
-3.6759E-08	-6.8108E-09	2.7529E-07	2.6125E-07
-6.0300E-08	8.1706E-08	2.3158E-07	6.8476E-08
-5.4314E-08	5.7057E-08	1.8814E-07	-4.6455E-08
-1.2354E-08	8.0718E-08	-5.9611E-08	-1.9874E-08
3.2126E-08	9.1125E-08	6.6165E-08	3.0015E-07
9.5121E-08	5.9255E-08	2.7232E-07	-1.2266E-07
8.9955E-08	6.1755E-09	-3.8525E-07	2.1180E-09
4.9406E-08	-2.6335E-08	2.6867E-08	5.2369E-07
5.9417E-09	9.7609E-09	2.0208E-07	1.5768E-08
-1.3707E-09	-5.0055E-08	-3.8914E-07	9.2557E-08
-2.7950E-08	-1.2057E-09	-1.2590E-07	7.1108E-07
-2.1237E-08	-2.0135E-08	4.9512E-08	3.4810E-07
-6.6600E-08	-4.3374E-09	9.5370E-08	9.8642E-07
-5.3761E-08	7.6760E-09	9.9613E-07	-1.0230E-07
-2.1545E-08	5.1951E-08	-1.0271E-06	-2.0585E-07
-6.0184E-08	4.3578E-08	-4.2956E-08	1.8429E-06
-6.5539E-08	4.6784E-09	1.2271E-06	4.5515E-07
-6.2788E-08	3.3591E-08	5.1277E-08	1.5342E-07
-1.0195E-07	6.1690E-08	5.7515E-07	1.0600E-06
-3.4755E-08	2.9619E-08	1.1560E-06	6.4050E-08
-1.2408E-08	6.4360E-08	3.5270E-07	4.4517E-08
-2.7145E-08	4.8320E-08	7.5414E-07	2.2231E-07
-1.3640E-08	6.5161E-08	7.7448E-07	-9.9659E-08
-4.6892E-09	3.0193E-08	6.5688E-07	-7.2905E-07
-4.9420E-08	-1.4173E-08	-4.2156E-07	-5.0756E-07
-7.3390E-08	1.4019E-08	-4.2539E-08	1.1992E-07
-7.2041E-08	5.7896E-08	-1.9682E-07	-2.3121E-07
-8.3474E-08	6.2751E-08	-7.2170E-07	3.0918E-07
-4.2537E-08	1.1271E-07	1.2943E-07	1.2663E-06
-4.8360E-08	1.0765E-07	9.3962E-07	-1.5560E-07
-2.3405E-08	1.1899E-07	-5.8854E-07	4.2385E-08
-2.0545E-08	6.4635E-08	2.9482E-07	7.7382E-07
-5.0434E-09	8.6967E-08	4.8037E-07	3.3898E-07
-1.5547E-08	9.3233E-08	4.7627E-07	-5.9367E-07
-6.7244E-09	2.0405E-08	-1.4082E-06	2.4140E-07
-1.2143E-08	4.1253E-08	5.1009E-07	1.6464E-06
-2.4276E-08	9.1502E-08	5.7748E-07	1.3327E-07
-4.9348E-08	5.7567E-08	4.4478E-07	4.3883E-07
3.5043E-10	7.0628E-08	1.7100E-07	1.6554E-07
-1.5518E-08	6.5619E-08	6.0348E-07	3.6709E-07
9.3172E-09	1.0210E-07	-8.9538E-08	-2.2533E-07
3.1309E-09	7.7735E-08	8.3623E-08	6.5275E-07
1.3218E-08	1.0337E-07	7.5829E-08	2.0994E-07
-2.6159E-08	5.9122E-08	3.1131E-07	6.9711E-07
7.8772E-09	8.6960E-08	2.5625E-07	1.8828E-07
3.4086E-09	5.5172E-08	5.1056E-07	4.9705E-07
2.8573E-08	7.0866E-08	-4.0440E-08	-3.5116E-07
5.0161E-08	4.7919E-08	-4.9680E-07	1.1198E-06
2.4311E-08	5.9295E-08	9.7613E-07	1.0898E-06
2.3656E-08	5.3569E-08	1.1124E-06	-5.4625E-08
-2.5924E-08	1.2812E-08	-5.5913E-08	-2.8136E-07
-2.9636E-08	3.8520E-08	3.4063E-07	7.7545E-07
-6.0190E-08	7.7195E-09	7.6612E-07	-2.6546E-07
-5.2416E-08	4.4368E-08	-3.2859E-07	-2.5146E-07
-8.3962E-08	2.5906E-08	-4.8015E-07	9.1751E-07
-9.3878E-09	6.4871E-08	1.2281E-06	9.7662E-07
-3.3924E-08	3.3223E-08	3.6168E-07	-8.8667E-07
-3.2728E-08	5.4147E-08	-5.8593E-07	7.7041E-07
-4.1184E-08	5.8947E-08	7.1770E-07	5.6511E-07
-1.5245E-08	5.9845E-08	1.8147E-07	1.8034E-07
-4.6538E-08	2.6459E-08	1.7156E-07	5.1323E-07
-4.3332E-08	7.3422E-08	5.2013E-07	6.3133E-07
-3.5108E-08	4.1631E-08	5.1673E-07	2.9020E-07
-5.5937E-08	4.9945E-08	8.2072E-07	6.3100E-07
-2.3228E-08	5.7666E-08	1.2250E-06	-6.4538E-07
-4.3819E-08	5.4751E-08	-5.5178E-07	-8.3254E-07
-2.3964E-08	5.4887E-08	-4.9260E-07	8.0318E-07
-2.4307E-08	9.8126E-08	6.2026E-07	4.2583E-07
-3.8054E-08	5.6289E-08	-4.5207E-08	1.7230E-07
-2.3840E-08	7.7999E-08	6.7737E-07	5.7263E-07
-3.3400E-08	3.7259E-08	2.1215E-07	-5.0199E-07
-4.9017E-08	9.3213E-08	-2.1962E-07	5.5742E-07
1.8672E-08	6.7636E-08	5.3363E-07	4.6982E-08
-4.2753E-08	3.5506E-08	-3.2170E-07	-5.9622E-09
-3.2995E-08	6.6118E-08	-3.4881E-08	5.3709E-07
-4.0532E-08	3.3850E-08	3.6086E-08	2.5865E-07
-6.8941E-08	5.8680E-08	-2.2826E-07	4.2496E-07
-9.2962E-08	8.4058E-08	-3.0918E-07	7.0294E-07
-6.3400E-08	6.9219E-08	4.7158E-08	1.4456E-06
-7.4820E-08	9.0556E-08	1.1229E-06	8.1249E-07
-6.7387E-09	1.1183E-07	3.9154E-07	3.2920E-07
-3.7494E-08	1.0214E-07	5.9049E-07	4.4323E-07
3.8183E-08	6.6554E-08	-2.6472E-08	8.2480E-07
2.9000E-08	7.1068E-08	1.6294E-06	9.5917E-07
5.5323E-08	5.4050E-08	2.5977E-07	-4.3242E-07
6.0309E-08	4.7107E-08	1.2127E-06	1.4848E-06
-1.8639E-08	3.9271E-08	1.7827E-06	-1.5404E-06
-1.1202E-08	8.7338E-08	-1.0310E-06	-5.0011E-07
-2.8026E-08	4.3228E-08	6.3031E-08	8.0064E-07
-6.4097E-09	5.9758E-08	5.7682E-07	7.6945E-07
-7.9084E-09	1.0756E-07	1.1917E-06	1.8312E-07
-6.5297E-09	6.0758E-08	7.8012E-07	-2.6584E-07
-2.9726E-08	6.5917E-08	8.3510E-07	-4.4077E-07
-1.9072E-08	4.8335E-08	1.9338E-07	-1.1948E-06
2.4897E-08	5.2561E-08	-1.1847E-06	-1.1094E-07
4.2681E-08	3.6219E-08	4.6130E-07	9.9971E-07
-2.2154E-08	6.7748E-08	4.6783E-07	-6.6112E-07
-4.1924E-08	-7.6788E-09	-4.2514E-07	-1.9554E-07
6.2109E-09	4.1870E-08	-7.5825E-07	2.5805E-07
-2.6162E-08	9.2930E-08	1.4820E-07	1.2065E-06
-6.4678E-08	5.5452E-08	5.3183E-07	2.9959E-07
-5.4161E-08	8.4456E-08	9.1302E-07	1.9854E-07
-7.9662E-09	9.0601E-08	-4.5716E-07	-9.3908E-07
-4.4190E-08	1.5380E-08	-1.0743E-07	1.5293E-06
-3.5995E-08	7.5955E-08	1.2308E-06	-6.9115E-07
-4.9154E-09	8.9568E-08	-2.1703E-07	-2.1448E-07
-4.0379E-08	9.9493E-08	-2.3985E-07	-1.4217E-06
2.7022E-08	6.5193E-08	-2.3707E-06	6.8331E-07
-6.4643E-09	3.2547E-08	-2.7462E-07	1.1703E-06
-3.8333E-08	6.2345E-08	-9.9805E-07	1.8501E-06
-4.6521E-09	3.7716E-08	1.6247E-06	1.5538E-06
-4.1664E-08	9.7061E-08	7.5872E-09	2.1476E-07
-2.4058E-08	9.1338E-08	1.1760E-06	1.5304E-06
-1.6265E-08	5.3198E-08	1.6439E-06	-6.9719E-07
6.4063E-09	6.6636E-08	-5.5577E-07	-1.2654E-06
