jMRUI Data Textfile

Filename: Export_to_jmrui.txt

PointsInDataset: 2048
DatasetsInFile: 1
SamplingInterval: 0.250000
ZeroOrderPhase: 0E0
BeginTime: 0E0
TransmitterFrequency: 1.2326E8
MagneticField: 2.8936E0
TypeOfNucleus:  
NameOfPatient:  
DateOfExperiment:  
Spectrometer:  
AdditionalInfo: 
SignalNames:  


Signal and FFT
sig(real)	sig(imag)	fft(real)	fft(imag)
Signal 1 out of 1 in file
4.5711E-07	-8.1358E-08	2.1801E-07	-2.8603E-07
6.2486E-07	-2.3403E-07	-9.5133E-07	-2.4777E-07
3.7566E-07	-4.1333E-07	-7.4774E-07	8.5376E-07
2.3651E-07	-4.4858E-07	-1.1297E-08	6.3090E-07
-5.0835E-08	-3.5657E-07	-1.8568E-07	4.7655E-07
-8.7980E-08	-2.1969E-07	1.4902E-07	5.3029E-07
-1.6614E-07	-5.9229E-08	-2.4866E-08	2.0326E-07
-9.8940E-08	-1.0935E-08	1.2215E-07	5.0907E-07
3.4966E-08	8.0512E-08	2.0307E-07	3.5342E-08
1.6343E-07	1.6906E-08	1.0399E-07	3.9483E-07
1.6259E-07	-1.1114E-07	6.0254E-07	-3.6889E-07
2.1146E-07	-1.9346E-07	-6.5151E-07	-4.1346E-07
1.0838E-07	-2.5712E-07	-1.3820E-08	3.1370E-07
3.0710E-08	-2.2070E-07	-5.1657E-07	-5.2780E-07
-4.3668E-08	-1.5258E-07	-8.4721E-07	7.9368E-07
-6.9618E-08	-6.2796E-08	7.3560E-08	5.6317E-07
-5.0517E-08	1.3140E-08	1.4555E-07	7.2379E-07
-4.6090E-08	4.2140E-08	5.8921E-07	-4.4865E-07
1.2520E-08	3.5175E-08	-1.2208E-06	2.7318E-07
1.2092E-10	2.2200E-09	9.4030E-07	1.2670E-06
3.9329E-09	-2.7326E-08	3.5863E-07	-9.7198E-07
-1.7241E-08	-4.8853E-08	-6.1937E-07	3.1049E-07
-6.1683E-08	-3.3001E-08	3.0240E-08	2.9766E-07
-4.7417E-08	1.3059E-08	2.8762E-07	3.6729E-07
-7.3554E-08	6.1710E-08	2.7076E-08	-6.1176E-07
-1.0534E-09	4.0749E-08	-9.0272E-07	5.7230E-07
2.6971E-09	1.5959E-08	6.4313E-07	7.1985E-07
7.1574E-08	8.0487E-09	1.6419E-07	-4.0860E-07
-2.5463E-08	-3.0689E-08	-4.3367E-07	2.1262E-07
-4.6756E-08	-3.2640E-08	1.9653E-07	5.2856E-07
-6.5300E-08	5.3090E-09	3.1122E-07	-9.7133E-08
-1.9623E-08	3.4034E-08	-5.4064E-08	-9.2579E-08
-1.6993E-08	1.2146E-07	-2.1166E-07	-2.1637E-07
1.0512E-08	1.2219E-07	-7.6488E-07	2.1122E-07
2.4648E-08	8.7408E-08	-2.7973E-07	1.0985E-06
6.8846E-08	6.7324E-08	8.2494E-07	5.1679E-07
1.1062E-07	3.1144E-08	-3.3212E-07	-1.4408E-07
1.1028E-07	1.5767E-08	4.9990E-07	1.6330E-06
6.0417E-08	-9.8287E-10	1.9769E-06	-8.0859E-07
3.9813E-08	-9.7819E-09	-6.0381E-07	-1.1128E-06
1.0861E-08	3.4680E-08	-3.9678E-08	-2.0056E-08
8.0981E-08	3.3776E-08	-4.5921E-07	-5.8161E-07
9.0749E-08	1.0001E-08	-9.0536E-07	1.5515E-07
9.3483E-08	-2.6704E-08	-5.5491E-07	9.1881E-07
7.5667E-08	-5.0783E-08	2.8475E-07	8.2011E-07
5.1134E-08	-9.5705E-08	4.9444E-07	6.3262E-07
1.6871E-08	-8.1170E-08	7.5926E-07	-1.5976E-07
1.0924E-08	-6.9151E-08	1.7726E-08	1.9058E-07
2.1706E-09	-2.9931E-11	1.0801E-06	-4.1192E-07
-2.6467E-10	4.3531E-08	-8.6555E-07	-7.7582E-07
5.1613E-08	6.3534E-09	3.9139E-07	7.2474E-07
7.8138E-08	-1.0632E-09	1.8857E-07	-1.1313E-06
1.0332E-07	-7.9532E-09	-7.7225E-07	-2.8506E-07
7.2731E-08	-6.0597E-08	-1.0348E-06	-1.6634E-07
-1.8673E-08	-6.8813E-08	-7.8434E-07	1.0369E-06
-4.4443E-09	-8.9806E-08	-3.5979E-07	7.4193E-07
-1.0301E-07	-4.4259E-08	3.6171E-07	1.7785E-06
-7.1993E-08	-1.9306E-08	1.6844E-06	-8.5064E-08
-2.8972E-08	3.7897E-08	-4.7179E-08	-4.3969E-07
-3.3566E-08	3.6952E-08	5.3640E-07	1.4554E-07
5.0744E-08	5.3169E-08	2.4750E-07	-7.0377E-07
6.2218E-08	8.6864E-09	-4.5179E-07	-1.5546E-07
4.9697E-08	-2.6560E-08	3.5123E-07	6.3764E-08
1.0940E-08	-6.8373E-08	-3.0506E-07	-1.0835E-06
-6.2127E-08	-6.7616E-08	-1.3208E-06	3.0086E-07
-5.6932E-08	-1.0406E-08	-5.4670E-08	6.5928E-07
-1.0865E-07	1.1697E-08	-2.3654E-07	1.3808E-07
-1.2775E-07	-1.0208E-08	-1.6691E-07	4.2278E-07
-7.6670E-08	4.3465E-08	4.1279E-08	5.1808E-09
-6.3532E-08	5.9133E-08	-9.8087E-07	-2.6183E-08
-3.9847E-08	4.5871E-08	-5.4232E-07	1.7254E-06
2.9761E-08	6.8674E-08	1.2897E-06	8.0141E-07
1.1937E-08	6.7971E-08	5.3199E-07	-3.5113E-07
7.1625E-09	3.6525E-08	-1.8514E-08	-4.0896E-07
2.4221E-08	5.3343E-08	-6.8540E-07	1.0875E-07
5.5392E-09	3.4705E-08	-1.6610E-07	6.6293E-07
1.3764E-08	1.5572E-08	7.8093E-08	6.7583E-07
1.2257E-09	1.0519E-08	8.3961E-07	2.2994E-07
-3.2125E-08	-2.0457E-08	-2.2920E-07	-8.2268E-07
2.7570E-09	-1.2886E-08	-9.6234E-07	6.6324E-07
3.9647E-09	5.8283E-08	3.7924E-07	7.7587E-07
4.1941E-08	4.0176E-08	-1.1468E-07	2.3832E-08
-4.4058E-09	8.9457E-08	-1.8052E-07	8.3212E-07
-2.0567E-08	5.8998E-08	4.3576E-07	5.4179E-07
2.0103E-08	3.2812E-08	3.5549E-07	4.4382E-07
5.6620E-08	4.3190E-08	6.0308E-07	7.3733E-08
5.1273E-08	3.4350E-09	1.9032E-07	-2.0291E-07
4.3837E-08	-2.5722E-08	-2.0639E-07	-3.0180E-07
8.6557E-08	3.2282E-09	-8.2290E-07	5.6696E-07
2.9204E-08	-8.8687E-09	5.9378E-07	1.2872E-06
-5.2671E-08	1.8322E-08	1.2242E-06	-5.1312E-07
-1.7527E-08	3.6331E-08	-9.4921E-07	-1.1185E-06
-2.9213E-08	6.8236E-08	-1.3746E-06	1.3473E-06
-1.2409E-08	4.8374E-08	7.0787E-07	1.3340E-06
2.7364E-08	7.7254E-08	5.5001E-07	4.5775E-07
2.4051E-08	3.8151E-08	7.2158E-07	5.1763E-08
2.5477E-09	-2.3060E-08	-2.9838E-07	-8.2008E-08
3.8607E-08	1.0104E-08	9.9659E-08	6.4197E-07
3.0001E-09	5.4855E-09	-1.2205E-07	5.4568E-07
-8.8539E-09	-7.2172E-09	8.7516E-07	1.1540E-06
1.5998E-09	1.1927E-08	1.0383E-06	-2.1080E-07
-9.5016E-09	7.7434E-09	7.5764E-07	-2.7253E-07
2.7928E-08	3.0961E-08	-3.0860E-07	-1.2615E-06
-1.3908E-08	4.5915E-09	-1.2649E-06	8.7212E-07
-2.5778E-08	1.7775E-08	5.0929E-07	8.5340E-07
-4.1075E-08	2.8567E-09	8.5365E-08	6.7464E-07
-1.9359E-08	2.8327E-08	1.1634E-06	5.1291E-07
-2.9783E-10	4.0219E-08	5.1515E-07	-7.0609E-07
3.3193E-08	5.5933E-08	-5.3263E-07	-5.2573E-07
-1.2906E-08	1.5691E-08	-1.2678E-06	8.9135E-07
-2.8461E-08	-4.3158E-09	6.5352E-07	2.0211E-06
3.9639E-09	4.2931E-08	1.4810E-06	3.8762E-07
-3.3307E-08	3.6591E-08	9.8334E-07	2.3188E-08
2.6318E-09	2.0459E-08	8.2785E-07	-5.8289E-07
-2.2894E-08	3.5229E-08	-3.9699E-08	-4.0480E-07
-4.1834E-08	3.6649E-08	1.5352E-07	-1.9642E-07
-4.2859E-08	7.2185E-08	-6.1822E-07	-1.7462E-07
2.1490E-09	-1.3601E-09	-1.7754E-07	1.0226E-06
-2.0226E-08	3.2690E-08	4.2833E-07	3.5507E-07
-5.0104E-08	7.5797E-08	1.9238E-08	8.0495E-07
-1.9806E-08	7.1919E-08	8.9996E-07	9.3662E-07
-1.5514E-08	3.8062E-08	1.5290E-06	4.8940E-07
-1.5893E-09	7.9004E-08	1.4033E-06	-1.2054E-06
1.9982E-08	5.6559E-08	-6.1238E-07	-5.8453E-07
1.0509E-08	4.8799E-08	5.7497E-07	3.9053E-07
-1.5765E-08	8.0117E-09	3.7918E-07	-3.7168E-07
-3.2942E-08	1.3294E-08	6.5749E-07	-3.8283E-07
-3.1225E-08	1.1663E-08	-5.7115E-07	-1.0084E-06
-4.8924E-08	2.9705E-08	-6.1457E-07	7.9784E-07
-2.8136E-08	7.7935E-08	6.3061E-07	3.9557E-07
3.8968E-08	6.5421E-08	4.7894E-07	-2.7139E-07
-5.8253E-09	6.9339E-08	-3.1865E-07	-4.2400E-07
3.7450E-08	6.3426E-08	-4.3661E-07	5.3503E-07
1.3501E-08	9.4485E-08	1.4244E-07	9.1549E-07
2.3075E-08	6.2377E-08	1.3462E-06	5.9088E-07
3.9602E-08	7.1269E-08	5.5517E-07	-9.6238E-07
-2.0472E-08	6.6526E-08	-1.2923E-07	2.1118E-07
1.3294E-09	3.2359E-08	3.8109E-07	-9.6898E-08
2.0634E-08	-2.8301E-08	4.6317E-07	3.7125E-07
2.8230E-08	-2.5644E-09	6.3608E-07	-9.9975E-07
-2.4208E-08	1.2788E-08	-1.0066E-06	4.0374E-07
-1.6673E-08	2.4258E-08	1.4776E-06	7.8091E-07
6.2812E-10	6.6923E-08	6.7637E-07	-1.1453E-06
-4.1916E-09	4.4305E-08	3.5904E-08	-6.2455E-07
-6.2113E-09	1.8564E-08	-5.0180E-07	-4.9388E-07
-1.1082E-08	1.0544E-09	8.9258E-08	4.4633E-07
-2.3211E-08	-1.6220E-08	6.3846E-07	-7.3298E-07
-4.0514E-08	4.9666E-09	-8.6326E-07	-9.8947E-07
-4.9602E-08	1.2680E-08	-1.1357E-06	8.9586E-07
5.9866E-09	2.8639E-08	1.2253E-06	7.6577E-07
-7.1252E-09	5.4452E-08	6.2513E-08	-1.5151E-06
2.2636E-08	2.8883E-08	-1.2047E-06	3.1821E-07
-9.0056E-09	4.9277E-08	1.4733E-08	3.1957E-07
2.4948E-08	2.4807E-08	-4.5918E-07	4.5751E-07
-1.3669E-08	8.0182E-08	3.5341E-07	5.4037E-07
-3.3734E-09	8.2249E-08	1.4340E-07	2.1999E-07
-1.1619E-08	3.6547E-08	4.8942E-07	-3.0868E-09
7.9064E-09	5.6307E-08	-3.0572E-07	-2.2029E-07
-5.5410E-09	4.0212E-08	8.4504E-09	4.3723E-07
4.9211E-08	4.7313E-08	6.7856E-08	1.5340E-07
-1.8435E-08	5.9929E-08	2.6638E-07	2.0173E-07
-8.8541E-09	4.3279E-08	-1.3942E-07	1.0745E-07
5.1828E-09	-7.2664E-09	6.7222E-07	5.4447E-07
3.1102E-08	5.4962E-08	3.0783E-07	-8.6523E-07
4.6543E-08	3.3508E-08	-6.2815E-07	1.6054E-07
-4.1157E-08	-1.1295E-09	-1.8146E-08	3.2661E-07
-1.7422E-08	4.4926E-08	1.8481E-07	6.9647E-07
-2.8627E-08	6.9919E-08	9.3284E-07	-1.3028E-07
1.8945E-08	6.6442E-08	-3.7886E-08	-4.5229E-07
-1.7646E-08	7.8538E-08	1.5012E-07	-1.2586E-07
4.5650E-08	1.0874E-07	-3.4782E-07	-4.6497E-07
5.0847E-08	9.4572E-08	-5.6828E-07	6.0367E-07
5.6476E-08	6.8156E-08	8.1129E-07	4.6832E-07
5.3105E-08	3.3513E-08	1.7209E-07	-7.9427E-07
2.2529E-08	3.1139E-08	-4.2928E-07	-8.2463E-08
1.0799E-08	4.9505E-08	-4.4901E-07	-6.6901E-08
9.5120E-09	4.9901E-08	-2.1816E-07	7.1492E-07
-8.3401E-09	-1.3457E-08	3.0479E-07	-5.2823E-08
-3.7619E-08	4.2597E-08	-1.2347E-07	3.0968E-07
2.5501E-08	6.1943E-09	3.0263E-07	-4.5197E-07
2.6912E-08	3.0643E-08	-1.0511E-06	1.5652E-07
1.2869E-08	4.4505E-08	3.1755E-07	7.7299E-07
4.1202E-08	4.7379E-08	-5.9697E-08	-2.1247E-07
2.0581E-08	-1.5845E-08	-4.1309E-07	2.4537E-07
1.7371E-08	1.0645E-08	-4.1541E-07	7.2789E-07
-3.4915E-08	9.0015E-09	3.9711E-07	7.9403E-07
1.1553E-08	2.5513E-08	2.6291E-07	5.3798E-07
-3.3458E-08	2.6259E-09	1.2131E-06	4.0404E-07
-3.6240E-08	-1.3814E-08	4.3481E-07	-1.2224E-06
-3.6174E-08	3.2243E-08	-9.2098E-07	-1.3136E-07
-9.3358E-08	3.1505E-08	5.6357E-08	6.0137E-07
-1.0678E-08	6.4923E-08	3.3358E-07	-3.0899E-07
-2.8087E-08	6.2193E-08	-6.1824E-07	-3.8165E-07
8.6569E-09	5.2650E-08	-7.9202E-07	4.2356E-07
-1.0924E-08	1.4876E-08	-2.0005E-07	8.7882E-07
3.7134E-09	6.1891E-08	1.5959E-07	2.7267E-07
4.4554E-10	2.6460E-08	-3.9420E-07	5.7195E-07
6.9349E-09	6.4260E-08	2.6739E-07	6.3274E-07
3.7618E-09	7.8276E-08	-6.5329E-08	6.4555E-07
-2.1375E-08	5.1431E-08	8.4100E-07	5.3124E-07
-1.7532E-08	6.1594E-08	3.0745E-08	-1.4676E-07
-4.5948E-09	7.5204E-08	3.3700E-07	2.8160E-07
3.1475E-08	3.5709E-08	-5.3132E-07	-6.3194E-08
1.8517E-08	6.9968E-08	3.7040E-07	1.2727E-06
1.3242E-08	4.3210E-08	5.9368E-07	-5.1137E-07
