jMRUI Data Textfile

Filename: Export_to_jmrui.txt

PointsInDataset: 2048
DatasetsInFile: 1
SamplingInterval: 0.250000
ZeroOrderPhase: 0E0
BeginTime: 0E0
TransmitterFrequency: 1.2326E8
MagneticField: 2.8936E0
TypeOfNucleus:  
NameOfPatient:  
DateOfExperiment:  
Spectrometer:  
AdditionalInfo: 
SignalNames:  


Signal and FFT
sig(real)	sig(imag)	fft(real)	fft(imag)
Signal 1 out of 1 in file
3.1515E-06	1.0248E-06	-4.6092E-06	-6.1636E-07
6.1100E-06	-5.2638E-07	-4.2956E-06	2.7597E-07
3.8446E-06	-2.6779E-06	-3.7386E-06	4.4126E-07
1.8602E-06	-3.5103E-06	-3.5122E-06	1.1328E-06
-1.0947E-06	-3.7197E-06	-2.4953E-06	4.2837E-07
-2.9597E-06	-2.3745E-06	-3.7628E-06	6.2246E-07
-4.0572E-06	-8.2452E-07	-2.2532E-06	1.6259E-06
-3.2715E-06	1.0251E-06	-2.2174E-06	-1.2151E-07
-2.0090E-06	1.7459E-06	-3.6141E-06	6.1580E-07
-2.5488E-07	1.7712E-06	-2.5612E-06	1.8176E-06
5.8915E-07	1.1326E-06	-1.6698E-06	5.6367E-07
1.0836E-06	3.8372E-07	-2.9048E-06	3.9806E-07
6.6865E-07	-4.5850E-07	-2.5631E-06	1.0241E-06
1.1072E-07	-8.0874E-07	-2.7402E-06	9.0830E-07
-7.6307E-07	-8.7612E-07	-2.5256E-06	1.2507E-06
-1.0661E-06	-4.3973E-07	-2.6302E-06	1.3131E-06
-1.2910E-06	-1.8004E-07	-2.1482E-06	1.7012E-06
-1.1687E-06	1.4089E-07	-1.8429E-06	1.4187E-06
-1.1451E-06	3.0309E-07	-1.6832E-06	1.1135E-06
-1.0419E-06	4.1680E-07	-1.9639E-06	1.1312E-06
-1.1655E-06	5.5446E-07	-1.3946E-06	7.2583E-07
-1.0886E-06	7.6512E-07	-2.8507E-06	2.1894E-07
-1.0774E-06	9.8320E-07	-2.7117E-06	1.7703E-06
-6.8416E-07	1.1768E-06	-2.4064E-06	1.5317E-06
-4.1521E-07	1.2579E-06	-1.7927E-06	2.3690E-06
5.9979E-08	1.1165E-06	-1.3275E-06	1.0144E-06
3.2118E-07	6.7592E-07	-2.2965E-06	1.9310E-06
4.0616E-07	3.0262E-07	-5.6051E-07	1.8176E-06
9.3290E-08	7.7021E-08	-1.2606E-06	3.8400E-07
-2.6214E-07	1.3060E-07	-2.0180E-06	7.6167E-07
-6.3123E-07	4.2278E-07	-2.2030E-06	1.1156E-06
-6.6695E-07	8.2273E-07	-2.1787E-06	1.3683E-06
-6.0475E-07	1.1760E-06	-2.2712E-06	1.9247E-06
-1.8095E-07	1.3755E-06	-1.2102E-06	2.0966E-06
1.8704E-07	1.2826E-06	-1.5020E-06	1.2633E-06
5.1172E-07	1.1731E-06	-1.3475E-06	1.9088E-06
6.6213E-07	9.5188E-07	-1.2180E-06	8.9772E-07
7.3369E-07	7.4430E-07	-2.1169E-06	1.7771E-06
6.8891E-07	5.6165E-07	-9.3827E-07	1.9843E-06
7.0564E-07	5.3090E-07	-7.9941E-07	1.4851E-06
6.6977E-07	4.4020E-07	-7.9991E-07	5.6424E-07
7.7733E-07	3.2687E-07	-2.1130E-06	9.7075E-07
7.6862E-07	1.2793E-07	-1.4028E-06	1.5553E-06
7.3616E-07	-7.2234E-08	-1.4107E-06	1.7017E-06
4.8235E-07	-2.6755E-07	-1.8315E-07	7.0776E-07
2.8508E-07	-2.6014E-07	-2.9123E-06	-1.2364E-07
-1.7175E-08	-1.5695E-07	-2.1400E-06	2.8985E-06
-9.8949E-08	1.6583E-07	-5.5120E-07	1.2498E-06
-4.2923E-08	4.6980E-07	-1.6476E-06	9.5283E-07
2.3888E-07	6.5472E-07	-1.8174E-06	1.2902E-06
5.0070E-07	5.6836E-07	-1.6895E-06	1.5191E-06
7.0407E-07	3.5835E-07	-1.8691E-06	1.8224E-06
6.8333E-07	1.0939E-07	-5.8060E-07	1.9028E-06
4.7946E-07	-1.5815E-07	-1.6263E-06	2.8576E-07
2.0189E-07	-2.7020E-07	-2.1395E-06	2.0658E-06
-1.1154E-07	-1.2776E-07	-1.3259E-06	1.2501E-06
-2.3911E-07	1.1676E-07	-2.1746E-06	2.2195E-06
-1.8004E-07	3.6257E-07	-2.9921E-07	1.9939E-06
-3.8486E-09	5.9961E-07	-1.5671E-06	3.4347E-07
3.5616E-07	6.5598E-07	-2.5971E-06	2.1558E-06
5.6054E-07	4.8287E-07	-7.7971E-07	2.4380E-06
6.7804E-07	2.3916E-07	-1.1810E-06	1.4344E-06
5.7897E-07	5.4641E-08	-8.8931E-07	1.7142E-06
3.7443E-07	-3.8500E-08	-1.5351E-06	9.7899E-07
1.3552E-07	3.2118E-08	-1.3793E-06	1.8541E-06
7.7949E-08	2.8833E-07	-1.8341E-06	9.8731E-07
8.2136E-08	3.9684E-07	-1.8692E-06	2.7988E-06
2.0797E-07	4.9188E-07	-4.7428E-07	1.4608E-06
3.8348E-07	4.4086E-07	-1.9239E-06	1.5467E-06
4.7406E-07	3.0868E-07	-1.2131E-06	1.9882E-06
4.5456E-07	1.9821E-07	-1.4711E-06	1.5948E-06
3.9154E-07	9.1940E-08	-1.9039E-06	2.0202E-06
1.9505E-07	1.0909E-07	-1.0838E-06	2.8942E-06
1.7371E-07	2.1737E-07	-3.5194E-07	1.7193E-06
1.7577E-07	3.8821E-07	-9.8269E-07	1.4276E-06
2.9325E-07	5.2469E-07	-1.6435E-06	1.1746E-06
4.8644E-07	4.7178E-07	-1.8286E-06	2.4934E-06
6.4004E-07	3.6173E-07	-1.1356E-06	2.0759E-06
6.6503E-07	1.7469E-07	-1.1315E-06	2.9404E-06
5.7312E-07	3.6995E-08	1.5897E-07	1.6841E-06
3.8423E-07	9.8423E-09	-1.3683E-06	1.4854E-06
2.5248E-07	1.1188E-07	-8.1197E-07	2.0392E-06
1.7320E-07	2.2299E-07	-7.3244E-07	1.9240E-06
2.9966E-07	3.1403E-07	-4.8011E-07	1.2199E-06
4.4860E-07	3.2580E-07	-1.3817E-06	1.2883E-06
6.0312E-07	2.3924E-07	-1.5555E-06	1.2800E-06
6.9113E-07	1.3869E-07	-2.0713E-06	2.7137E-06
6.5421E-07	-4.4766E-08	-9.7135E-09	2.4525E-06
4.4813E-07	-2.0799E-07	-8.9247E-07	1.3625E-06
3.0016E-07	-2.2135E-07	-9.0792E-07	1.6125E-06
1.3155E-07	-1.4434E-07	-1.2142E-06	1.7831E-06
4.7000E-08	7.8285E-08	-7.7194E-07	1.2459E-06
1.0026E-07	2.6536E-07	-2.3127E-06	1.7685E-06
3.0748E-07	3.7292E-07	-6.0601E-07	2.6960E-06
5.1408E-07	2.5529E-07	-1.1800E-06	1.2880E-06
6.0640E-07	1.7320E-07	-1.2460E-06	2.2245E-06
6.0620E-07	4.5315E-08	-1.2951E-06	1.5378E-06
5.3556E-07	-7.6191E-08	-1.9294E-06	2.5352E-06
4.0164E-07	-2.0326E-07	-5.4812E-07	3.1710E-06
2.8022E-07	-2.1910E-07	1.1605E-07	1.4772E-06
1.8322E-07	-2.1903E-07	-1.7181E-06	1.3131E-06
7.5529E-08	-1.7664E-07	-1.3012E-06	2.6418E-06
2.3272E-08	-2.9945E-08	-5.9967E-07	2.3038E-06
9.1929E-08	5.5582E-08	-7.2083E-07	1.5257E-06
1.3265E-07	5.0895E-08	-1.7412E-06	2.1206E-06
1.3189E-07	6.0294E-08	-6.7883E-07	2.4588E-06
8.3485E-08	7.2727E-08	-1.4797E-06	2.1233E-06
6.8663E-08	1.3714E-07	-5.3256E-07	3.0242E-06
8.9032E-08	2.1151E-07	-6.6530E-07	1.9917E-06
2.5884E-07	2.4448E-07	-4.5685E-07	2.8937E-06
3.2460E-07	1.9533E-07	3.3488E-07	1.6789E-06
3.9015E-07	1.5766E-07	-9.6911E-07	1.1300E-06
4.4218E-07	3.9606E-08	-1.4547E-06	2.4895E-06
3.0912E-07	-9.6961E-08	3.3909E-07	2.3800E-06
1.9729E-07	-1.0509E-07	-9.9789E-07	6.7728E-07
1.0450E-07	-1.0113E-07	-1.6046E-06	2.7119E-06
-1.1852E-08	-2.6873E-09	-1.5407E-07	2.2392E-06
-2.0507E-08	1.2635E-07	-5.6155E-07	1.8057E-06
8.9360E-08	2.2164E-07	-8.4048E-07	1.2484E-06
2.7762E-07	2.4944E-07	-2.1252E-06	2.3724E-06
3.8957E-07	1.4701E-07	-1.6479E-07	3.4151E-06
4.3138E-07	4.0618E-08	-1.0655E-07	1.6554E-06
3.5454E-07	-1.1152E-07	-5.4847E-07	2.3491E-06
2.7101E-07	-1.2671E-07	-2.5276E-07	1.4563E-06
1.5423E-07	-1.5183E-07	-1.1575E-06	2.4290E-06
8.0220E-08	-3.9929E-08	4.7893E-07	2.0865E-06
4.9097E-08	6.3355E-08	-7.1653E-07	1.2210E-06
8.5197E-08	1.2499E-07	-4.8124E-07	1.7751E-06
1.4298E-07	1.4821E-07	-1.0315E-06	1.5966E-06
2.4593E-07	1.5995E-07	-3.7257E-07	2.1732E-06
2.8784E-07	3.1558E-08	-5.0796E-07	1.4868E-06
2.9934E-07	-1.5983E-08	-1.1394E-07	1.5998E-06
2.2771E-07	-5.8823E-08	-7.8873E-07	3.2288E-07
1.8107E-07	-3.4685E-08	-1.9575E-06	1.1381E-06
1.3844E-07	-1.5901E-09	-2.0714E-06	1.8352E-06
2.2455E-07	9.6489E-09	-1.5124E-06	2.7579E-06
2.4290E-07	-4.2526E-09	-7.0078E-07	2.1221E-06
3.2559E-07	-2.3710E-08	-1.4011E-06	1.7807E-06
2.8791E-07	-3.9402E-08	-1.4857E-06	2.5591E-06
2.9849E-07	-1.1666E-07	-8.9294E-07	2.4180E-06
2.1725E-07	-1.6631E-07	-1.1893E-06	2.6022E-06
8.9136E-08	-1.6982E-07	-2.0615E-07	2.4787E-06
4.0777E-09	-1.4925E-07	-1.0713E-06	1.6115E-06
-5.1050E-08	-6.4067E-08	-1.1942E-06	2.4817E-06
-1.1130E-08	1.6973E-08	-1.1881E-06	2.4619E-06
4.1871E-08	7.6552E-08	-6.2700E-07	2.9881E-06
1.0876E-07	8.6604E-08	-5.0386E-07	2.3804E-06
1.8765E-07	6.7769E-08	-1.5698E-07	2.6306E-06
2.0721E-07	-4.9852E-09	-3.9056E-07	1.5456E-06
2.0281E-07	-6.3669E-08	-1.0727E-06	2.4389E-06
1.4209E-07	-9.5427E-08	-2.6885E-07	2.3903E-06
4.2841E-08	-1.1054E-07	-2.9134E-07	2.0715E-06
3.3769E-08	-6.0514E-08	-5.9245E-07	1.6832E-06
-3.6202E-09	4.7807E-09	-7.6433E-07	2.3671E-06
3.2465E-10	5.3635E-08	2.8398E-08	1.7284E-06
5.7253E-08	1.3120E-07	-1.1165E-06	1.2396E-06
9.7931E-08	1.3991E-07	-1.2691E-06	2.1295E-06
1.2540E-07	1.1090E-07	-1.1035E-06	2.1267E-06
1.4684E-07	1.7328E-08	-1.0889E-06	2.6659E-06
1.4547E-07	-8.4254E-09	-2.9786E-07	2.5223E-06
1.3417E-07	-5.5636E-08	-3.7754E-07	2.1159E-06
1.0911E-07	-5.5930E-08	-2.5822E-07	1.6252E-06
7.6221E-08	-8.9902E-08	-1.3963E-06	1.6803E-06
5.7784E-08	-6.5249E-08	-4.8554E-07	2.6056E-06
3.0175E-09	-4.4968E-08	-7.0377E-07	1.2650E-06
-3.8405E-08	2.6160E-09	-1.3064E-06	2.4413E-06
-3.9614E-08	5.6988E-08	-1.7037E-07	1.7701E-06
-1.0451E-08	5.5317E-08	-1.5962E-06	1.2289E-06
2.9934E-08	8.0987E-08	-1.6676E-06	2.6665E-06
4.4452E-08	1.2684E-07	-6.3130E-07	2.2855E-06
5.6725E-08	1.0203E-07	-1.6551E-06	2.0002E-06
1.0608E-07	8.0897E-08	-8.7542E-07	3.3313E-06
8.9117E-08	3.7289E-09	-8.4461E-08	1.7405E-06
1.2269E-07	1.1418E-08	-1.6420E-06	1.8276E-06
9.2524E-08	5.7702E-09	-1.2728E-06	2.7950E-06
1.0343E-07	1.6151E-08	-5.2364E-07	2.8105E-06
7.0685E-08	-8.1593E-09	-2.6162E-07	1.4900E-06
5.1152E-08	-2.1133E-08	-2.2737E-06	1.6700E-06
1.1554E-08	-2.6125E-08	-1.3798E-06	3.4095E-06
5.6986E-08	1.3541E-08	-1.0985E-06	2.5021E-06
5.7327E-08	-2.0994E-08	-9.1086E-07	3.6427E-06
5.9098E-08	-3.2609E-08	8.1686E-08	2.2195E-06
2.2705E-08	-3.9529E-08	-1.1368E-06	2.7909E-06
4.9999E-08	-6.1427E-08	4.0996E-07	2.2555E-06
3.7076E-08	-8.8738E-08	-1.4472E-06	1.6221E-06
2.8120E-08	-7.3542E-08	-5.7335E-07	2.7927E-06
-5.1739E-08	-6.8206E-08	-9.0243E-07	1.8082E-06
-3.5421E-08	-1.6825E-10	-9.1794E-07	2.2156E-06
-1.5662E-08	-4.0347E-08	-1.6248E-06	2.0638E-06
-1.7532E-08	-1.5606E-08	-1.0074E-06	2.8426E-06
-6.3968E-08	-1.8045E-08	-1.5772E-06	2.3382E-06
-5.2440E-08	-2.6441E-08	-6.6126E-07	3.4570E-06
-6.8350E-08	-1.5353E-08	-8.2776E-07	1.8220E-06
-4.2038E-08	1.8304E-08	-1.2964E-06	3.1232E-06
-5.3516E-08	2.0352E-08	-6.8619E-07	2.1789E-06
-5.1053E-08	4.9598E-08	-1.5400E-06	2.7274E-06
-4.4495E-08	3.9951E-08	-1.2331E-06	2.8364E-06
4.7875E-08	1.8994E-08	-8.8375E-07	3.3545E-06
-1.6749E-09	-2.6450E-08	-8.0215E-07	2.2255E-06
-1.2497E-08	3.2149E-08	-1.7441E-06	3.3824E-06
3.8077E-09	-3.9243E-08	-4.7198E-07	3.3476E-06
-4.4662E-08	1.1631E-08	-8.4315E-07	3.2333E-06
-2.3088E-08	8.3032E-09	-1.5357E-07	3.0972E-06
-4.5135E-08	7.2334E-09	-5.5680E-07	2.6452E-06
-5.7364E-08	2.6878E-09	-5.3157E-07	2.7106E-06
