jMRUI Data Textfile

Filename: Export_to_jmrui.txt

PointsInDataset: 2048
DatasetsInFile: 1
SamplingInterval: 0.250000
ZeroOrderPhase: 0E0
BeginTime: 0E0
TransmitterFrequency: 1.2326E8
MagneticField: 2.8936E0
TypeOfNucleus:  
NameOfPatient:  
DateOfExperiment:  
Spectrometer:  
AdditionalInfo: 
SignalNames:  


Signal and FFT
sig(real)	sig(imag)	fft(real)	fft(imag)
Signal 1 out of 1 in file
1.6003E-06	1.1144E-06	-1.7846E-06	5.4100E-07
1.8452E-06	4.2575E-07	-1.4672E-07	1.8450E-06
1.1866E-06	-4.4994E-07	8.5315E-07	2.9278E-07
7.2684E-07	-7.8284E-07	-2.6352E-07	-1.0694E-06
-1.8628E-07	-9.7171E-07	-2.3373E-06	1.8715E-07
-6.5325E-07	-6.9418E-07	-5.9778E-07	2.0639E-06
-9.4087E-07	-3.0011E-07	5.8897E-08	5.5097E-07
-7.1906E-07	1.2970E-07	-5.0123E-07	5.9247E-07
-4.1225E-07	2.4763E-07	-1.1791E-06	8.3629E-07
-1.7406E-08	2.4424E-07	9.7275E-08	2.3371E-06
1.0803E-07	1.8810E-08	9.2780E-07	-5.5600E-08
1.9512E-07	-1.3022E-07	-1.0974E-06	6.0852E-07
-5.7185E-09	-3.3486E-07	-1.2277E-07	1.2322E-06
-1.5747E-07	-3.5510E-07	-9.2932E-08	1.3921E-06
-4.1144E-07	-2.4721E-07	6.9323E-07	6.6438E-07
-4.4238E-07	-1.0006E-07	-4.3137E-07	1.0333E-06
-3.5578E-07	2.0988E-08	1.6165E-06	1.0178E-06
-1.7366E-07	5.6473E-08	-7.3392E-08	-1.3110E-06
-1.4618E-07	2.4136E-08	-1.2895E-06	8.3222E-07
-1.1569E-07	-8.9869E-08	2.8496E-08	1.0529E-06
-2.7941E-07	-1.4245E-07	8.9916E-08	5.1516E-07
-4.0219E-07	-1.3236E-07	-1.6905E-07	3.5913E-07
-5.1053E-07	4.0188E-09	-3.2718E-07	7.1694E-08
-4.3548E-07	2.6059E-07	-1.5034E-06	5.9300E-07
-3.1064E-07	2.5085E-07	-3.0529E-07	1.7677E-06
-8.4508E-08	3.0895E-07	-5.4902E-07	6.7442E-07
2.8840E-08	1.9604E-07	-1.7152E-07	2.3184E-06
6.5052E-08	6.4908E-08	1.3424E-06	2.2683E-07
-1.0249E-08	-1.2716E-08	-1.2037E-06	-2.1202E-07
-1.4858E-07	-5.8560E-09	-1.2918E-06	1.5833E-06
-2.7163E-07	4.3883E-08	-2.1075E-07	2.2636E-06
-2.5426E-07	1.6234E-07	7.2538E-07	1.3231E-06
-2.7125E-07	2.8947E-07	-6.4647E-08	1.0201E-06
-9.2905E-08	3.4356E-07	2.3387E-07	1.2780E-06
8.5057E-10	3.6432E-07	2.8894E-08	1.1467E-06
1.0530E-07	2.8509E-07	3.4373E-07	1.3956E-06
1.3214E-07	1.6176E-07	5.2986E-07	9.7756E-07
1.6996E-07	1.5238E-07	1.0185E-07	7.3639E-07
1.1826E-07	1.5455E-07	4.9839E-08	1.4317E-06
1.5097E-07	1.2433E-07	8.4423E-07	8.6854E-07
1.4382E-07	1.5128E-07	-1.4301E-07	6.1556E-07
1.8014E-07	1.9109E-07	2.9149E-07	1.1976E-06
2.7193E-07	8.5903E-08	-2.1112E-08	8.1274E-07
2.7212E-07	-3.8059E-08	3.5201E-07	1.5661E-06
2.1026E-07	-1.0831E-07	7.0115E-07	6.4202E-07
9.7602E-08	-1.6842E-07	1.3036E-08	1.0908E-06
2.4459E-08	-1.6368E-07	1.0657E-06	1.0946E-06
-3.7331E-08	-1.1267E-07	5.5239E-07	-1.7347E-07
-9.7761E-08	-2.0801E-08	-6.3310E-07	5.0617E-07
8.4062E-09	3.9043E-08	5.9160E-08	1.4751E-06
8.0470E-08	6.4860E-08	8.6018E-07	7.5126E-07
9.8534E-08	2.8486E-09	1.2478E-07	-5.7281E-10
1.0521E-07	-5.5148E-08	-5.4241E-07	5.2695E-07
3.2280E-08	-9.9058E-08	-6.0760E-07	9.4287E-07
-4.5256E-08	-7.0567E-08	-3.9370E-07	1.7999E-06
-1.0388E-07	-5.7639E-08	8.1783E-07	1.4244E-06
-1.3985E-07	-6.1938E-09	1.1660E-07	8.3946E-07
-1.3471E-07	1.2522E-08	7.9391E-07	1.3841E-06
-5.6483E-08	9.3301E-08	5.5508E-07	-4.4890E-08
5.6830E-08	1.1391E-07	-4.4775E-07	7.8775E-07
5.0690E-08	2.3160E-08	8.0559E-08	9.6986E-07
5.0983E-08	-7.3231E-08	3.5331E-07	9.5620E-07
3.9106E-08	-1.0414E-07	-3.2946E-07	-2.4270E-07
-6.6437E-08	-1.0588E-07	-1.7154E-06	2.2025E-06
-1.1964E-07	-7.3459E-08	1.5373E-06	2.2152E-06
-1.3055E-07	-5.9895E-08	4.2574E-08	5.8287E-07
-1.9969E-07	3.0382E-08	1.1078E-06	1.8193E-06
-1.4583E-07	1.4930E-07	6.5931E-07	-3.5270E-07
-8.9763E-08	1.6223E-07	-4.3929E-07	1.0604E-06
-5.7495E-08	1.1760E-07	2.9808E-07	8.6541E-07
-2.0058E-08	7.5004E-08	1.3983E-07	1.0610E-06
7.3860E-09	2.2726E-08	1.6891E-07	5.7009E-07
-5.1178E-08	2.0608E-08	-2.5635E-07	1.2359E-06
-7.9661E-08	5.8226E-08	4.0288E-07	1.0019E-06
-4.7723E-08	7.6141E-08	-1.5129E-07	1.0234E-06
6.2983E-09	8.3553E-08	4.1133E-07	1.4294E-06
-3.9429E-08	7.3103E-08	6.6267E-07	6.3636E-07
7.3595E-08	7.4306E-08	-2.7529E-07	5.5126E-07
2.8113E-08	-3.6163E-09	-4.1521E-08	1.2620E-06
-3.4168E-08	-6.7990E-09	-1.0456E-07	1.0388E-06
-6.0237E-08	-6.0452E-10	3.3284E-07	1.5569E-06
-6.8679E-08	7.4533E-08	1.5369E-07	6.5558E-07
-2.7348E-08	1.3660E-07	-9.1833E-08	1.9041E-06
3.8198E-08	1.3926E-07	1.1234E-06	1.0807E-06
7.3764E-08	9.4206E-08	3.4981E-07	8.8864E-07
1.4650E-07	5.2364E-08	5.7900E-07	4.8148E-07
1.2797E-07	-1.4929E-08	-5.4929E-07	1.0886E-06
1.5287E-07	-4.9592E-08	1.0004E-06	1.6483E-06
5.8158E-08	-1.6282E-07	6.8460E-07	1.6184E-07
-5.5391E-08	-1.2858E-07	-1.0881E-07	5.4102E-07
-1.3864E-07	-1.0728E-07	-2.1432E-07	9.6506E-07
-1.4779E-07	-2.2713E-08	3.1370E-07	1.1851E-06
-1.2028E-07	6.9925E-08	7.1199E-08	6.2974E-07
4.8060E-10	1.1259E-07	-4.5614E-08	1.3472E-06
5.9511E-08	8.9891E-08	5.9817E-07	6.9918E-07
1.0559E-07	2.4371E-08	-5.5164E-07	7.1078E-07
9.7292E-08	-7.8731E-08	5.1468E-08	1.4662E-06
4.3272E-08	-1.5295E-07	-3.3328E-07	1.2332E-06
-1.2964E-08	-1.6082E-07	7.4946E-07	2.3443E-06
-7.7884E-08	-1.1221E-07	1.3547E-06	4.2195E-07
-1.0636E-07	-1.2708E-07	3.0247E-07	7.0103E-07
-1.0801E-07	-6.9237E-08	3.4525E-07	3.7577E-08
-1.3487E-07	-3.3815E-08	-7.9280E-07	1.2770E-06
-8.6133E-08	-6.7348E-09	1.1584E-06	1.1795E-06
-6.9610E-08	-3.7309E-08	-1.0482E-07	-1.1709E-07
-7.1455E-08	-4.4996E-08	-4.2328E-07	7.9861E-07
-1.1100E-07	-2.6996E-08	-5.8408E-07	9.1727E-07
-1.3147E-07	-4.3197E-08	-3.1897E-07	1.3218E-06
-1.2435E-07	1.9054E-08	-5.8031E-07	1.5800E-06
-1.1400E-07	2.8861E-08	7.8852E-07	2.2347E-06
-6.2255E-08	5.9506E-08	1.0071E-06	2.1021E-07
-4.0374E-08	5.2209E-08	-6.3946E-07	5.4847E-07
-4.3176E-08	-2.6823E-08	-4.6683E-07	1.3188E-06
-4.4991E-08	9.2474E-10	-8.2598E-08	1.9008E-06
-7.3799E-08	-4.1654E-08	8.9954E-07	1.0447E-06
-1.0612E-07	-5.0800E-08	-5.4154E-07	6.3945E-07
-1.4046E-07	-4.5990E-08	1.6105E-08	1.6705E-06
-1.5217E-07	4.1695E-09	-3.2549E-07	1.0424E-06
-1.1529E-07	2.5935E-08	1.7274E-07	2.2651E-06
-8.9684E-08	8.1217E-08	7.6107E-07	7.3263E-07
-7.5371E-08	5.1574E-08	-5.1058E-07	1.3310E-06
-3.5399E-08	3.1256E-08	1.9097E-07	1.6729E-06
-1.4120E-09	4.6096E-09	4.1761E-07	1.8801E-06
-4.5716E-08	-3.3350E-08	1.0637E-06	9.2633E-07
1.2388E-09	-4.4334E-08	-4.3132E-08	7.8103E-07
-8.8675E-09	-7.3757E-08	1.7693E-07	8.5761E-07
-8.4263E-08	-5.3944E-08	-9.6051E-07	1.0387E-06
-7.2711E-08	-1.5265E-08	-3.3537E-07	2.6389E-06
-1.1694E-07	-2.3367E-09	1.2062E-06	2.1264E-06
-8.2102E-08	5.3391E-08	9.2771E-07	7.3761E-07
-1.6626E-08	6.1521E-08	-8.3032E-08	1.0175E-06
-9.1449E-09	2.4732E-08	3.7186E-08	1.4989E-06
-3.0210E-08	3.9427E-08	4.6847E-07	1.8046E-06
1.5389E-09	2.6755E-08	8.2317E-07	7.8105E-07
-6.4302E-09	4.5543E-09	-7.4689E-07	9.3199E-07
2.0188E-09	-1.1607E-08	-2.9363E-07	2.5780E-06
2.4533E-08	-4.4466E-08	1.2776E-06	2.3714E-06
3.4022E-08	-7.5154E-08	1.1982E-06	9.6756E-07
3.5212E-08	-3.3832E-08	5.5149E-07	1.3665E-06
-3.7802E-09	-5.5146E-08	1.0120E-06	8.0048E-07
-6.8413E-08	-7.2577E-08	-2.1152E-07	9.4399E-07
-8.7541E-08	-2.5919E-08	5.5191E-07	1.8745E-06
-1.1099E-07	-1.1810E-08	9.7993E-07	9.4862E-07
-8.1684E-08	2.2909E-08	-1.6096E-08	8.0909E-07
-4.5260E-08	2.6575E-08	3.7284E-07	1.7690E-06
-4.9788E-08	-1.8104E-09	4.6820E-07	7.4236E-07
-3.0450E-08	2.8957E-08	-2.1135E-07	2.0427E-06
-4.3992E-08	-4.3325E-08	1.3321E-06	1.2874E-06
-4.9186E-08	-3.9403E-08	-3.7513E-07	1.2192E-06
-7.7191E-08	-2.2639E-09	9.8451E-07	2.5092E-06
-9.3467E-08	4.6300E-09	1.6832E-06	1.2286E-06
-5.9412E-08	4.2905E-09	9.5930E-07	2.4398E-07
-1.0482E-07	5.8584E-08	-1.9285E-07	1.3624E-06
-5.0952E-08	3.4506E-08	1.4752E-06	1.4659E-06
-4.3884E-08	7.3930E-08	3.5948E-07	5.8498E-07
-7.3523E-09	4.6894E-08	9.5025E-07	1.5577E-06
-2.4018E-08	5.6217E-08	9.9188E-07	6.1027E-07
1.2190E-08	-1.8949E-09	7.9759E-07	7.6089E-07
6.8235E-10	2.6399E-08	5.7943E-07	5.7657E-07
-4.4542E-08	3.8710E-08	6.9961E-07	5.5144E-07
-1.5279E-08	4.9123E-08	1.3847E-07	3.9301E-07
-5.0039E-08	5.5671E-08	2.6050E-07	5.3613E-07
-3.3811E-08	6.5046E-08	-6.6015E-07	6.8453E-07
-4.3807E-08	3.6456E-08	1.8156E-07	1.8435E-06
-4.7143E-08	4.5437E-08	6.3631E-07	8.7661E-07
-7.1259E-08	8.4986E-08	6.5202E-08	9.1877E-07
-8.1153E-08	7.4282E-08	2.5149E-07	1.4184E-06
-5.1443E-08	8.6866E-08	7.3155E-07	6.8845E-07
-3.7703E-08	9.3188E-08	-4.8313E-07	1.0768E-06
-1.6341E-08	1.1490E-07	9.1175E-07	1.5523E-06
-4.6968E-09	1.2359E-07	1.4880E-07	6.5919E-07
2.2982E-08	8.0562E-08	8.1426E-07	1.1130E-06
3.3963E-08	1.0839E-07	-4.5752E-07	1.6150E-07
6.0518E-08	7.2300E-08	3.0053E-08	2.0370E-06
1.8898E-08	7.1344E-08	4.4456E-07	7.3254E-07
-1.8440E-08	4.3475E-08	3.3332E-07	1.6249E-06
2.4782E-08	5.1698E-08	5.9086E-07	2.6513E-07
1.4039E-08	5.3623E-08	-6.2391E-07	1.2806E-06
3.8224E-09	5.1101E-08	4.1222E-07	1.5104E-06
-8.4062E-09	3.8032E-08	3.9917E-07	1.2253E-06
-1.9074E-08	3.0309E-08	2.4574E-07	1.0758E-06
-3.6051E-08	5.4435E-08	5.6990E-07	1.4072E-06
2.5789E-09	4.9086E-08	4.0222E-07	6.4812E-07
-7.4985E-09	1.9501E-08	5.2632E-07	1.3399E-06
5.9725E-09	6.0026E-08	4.8027E-07	-2.4806E-07
-2.2532E-08	5.3195E-08	-1.1867E-06	1.1620E-06
-6.7363E-08	3.3778E-08	3.1133E-07	1.3999E-06
-6.8708E-08	1.6415E-08	-4.4928E-07	1.2986E-06
-5.6663E-08	6.3553E-08	4.8637E-07	1.5425E-06
-5.8572E-08	9.9865E-08	-1.6872E-07	1.1351E-06
-8.3255E-08	1.2279E-07	6.6255E-07	1.6521E-06
-4.2655E-08	9.7020E-08	1.6353E-07	2.0799E-07
-2.9590E-08	1.3150E-07	-1.0912E-06	1.5448E-06
8.8557E-09	9.6219E-08	4.6736E-07	2.3377E-06
9.3909E-09	1.1678E-07	6.9907E-07	9.0689E-07
-1.1572E-09	8.0761E-08	-3.7167E-07	1.4022E-06
-2.4574E-08	6.6627E-08	6.5112E-07	1.6808E-06
-1.4640E-08	6.3136E-08	-1.4756E-07	9.7913E-07
-1.9067E-08	6.8558E-08	3.7308E-07	2.3255E-06
2.1135E-08	8.2598E-08	1.0102E-06	6.2659E-07
-9.3164E-09	4.8347E-08	-7.2592E-07	1.5088E-06
3.5949E-09	8.4927E-08	1.0450E-06	2.2589E-06
2.7745E-08	1.0142E-07	1.1771E-06	9.5043E-07
1.0490E-08	1.1138E-07	6.2971E-07	2.1564E-07
-4.0709E-10	6.5611E-08	-8.8764E-07	1.0386E-06
9.5934E-10	4.4729E-08	7.2097E-07	2.0498E-06
