jMRUI Data Textfile

Filename: Export_to_jmrui.txt

PointsInDataset: 2048
DatasetsInFile: 1
SamplingInterval: 0.250000
ZeroOrderPhase: 0E0
BeginTime: 0E0
TransmitterFrequency: 1.2326E8
MagneticField: 2.8936E0
TypeOfNucleus:  
NameOfPatient:  
DateOfExperiment:  
Spectrometer:  
AdditionalInfo: 
SignalNames:  


Signal and FFT
sig(real)	sig(imag)	fft(real)	fft(imag)
Signal 1 out of 1 in file
1.4626E-06	9.8531E-07	-1.1157E-06	7.2448E-07
1.2203E-06	4.1260E-07	3.8474E-07	1.4442E-06
7.7311E-07	-1.2668E-07	3.4131E-07	2.5959E-07
5.3205E-07	-3.0201E-07	-8.7171E-08	-4.9851E-08
-7.4376E-08	-4.6840E-07	-1.6089E-06	7.4616E-07
-3.9924E-07	-3.1045E-07	3.3055E-07	2.3603E-06
-5.8092E-07	-1.4686E-07	4.0796E-07	4.2400E-07
-4.0219E-07	1.1716E-07	2.7766E-08	1.6902E-06
-2.3174E-07	1.8503E-07	1.1391E-06	6.9640E-07
8.4521E-08	1.2865E-07	8.1153E-08	3.6285E-07
1.7080E-07	8.9952E-09	3.8380E-08	1.0284E-06
2.0108E-07	-1.5118E-07	7.6079E-07	9.1637E-07
6.8149E-09	-3.1461E-07	1.2890E-07	1.5177E-07
-1.5605E-07	-3.1688E-07	-1.8671E-07	9.7467E-07
-3.1804E-07	-2.0563E-07	-1.3250E-07	1.0006E-06
-2.9780E-07	-1.3655E-08	2.9292E-07	1.8978E-06
-2.6130E-07	7.7396E-08	1.3025E-06	1.0252E-06
-1.1664E-07	6.9690E-08	5.4229E-07	4.9564E-07
-3.9598E-08	-4.9771E-08	3.2205E-07	1.0592E-06
-5.1416E-08	-1.4446E-07	1.0121E-06	1.1160E-06
-2.1108E-07	-1.7863E-07	7.7283E-07	6.3811E-07
-2.9562E-07	-1.5420E-07	1.3003E-06	9.2457E-07
-3.7715E-07	-1.1636E-07	1.1096E-06	-4.7566E-07
-3.7812E-07	2.4311E-08	-8.4178E-08	4.3330E-08
-2.5784E-07	1.3878E-07	6.2674E-08	5.6440E-07
-8.2043E-08	1.4767E-07	5.3228E-07	8.1676E-07
-4.0541E-08	1.8658E-07	4.7028E-07	2.6636E-10
1.3312E-08	-2.9772E-09	-2.8868E-07	4.8667E-07
-4.0074E-08	-1.0045E-07	-8.8019E-08	1.1004E-06
-9.6660E-08	-1.2489E-07	1.0220E-06	1.2069E-06
-2.1819E-07	-8.8217E-08	3.6393E-07	-3.6899E-07
-2.8464E-07	3.8318E-08	-3.9159E-07	1.3497E-06
-2.3636E-07	1.6285E-07	8.6499E-07	5.9805E-07
-1.1830E-07	2.0025E-07	-3.4087E-08	1.1549E-06
-4.2171E-08	2.4790E-07	1.3732E-06	4.9674E-07
4.4148E-08	1.6670E-07	-4.0843E-07	3.0544E-07
7.1849E-08	6.8476E-08	9.6850E-07	1.2964E-06
1.0424E-07	7.4935E-09	5.9683E-07	-1.6459E-07
5.7768E-08	4.9789E-09	-1.5946E-07	2.0476E-07
6.2449E-08	-4.6668E-08	-6.9513E-07	1.2010E-06
2.8322E-08	9.2156E-09	1.2550E-06	1.6152E-06
1.1241E-07	5.3235E-08	2.8617E-07	-1.4594E-07
1.3779E-07	1.9504E-09	3.2512E-07	1.6613E-06
1.6403E-07	-8.4970E-08	1.3840E-06	3.4478E-08
9.8059E-08	-1.1287E-07	-2.2037E-08	1.2951E-07
1.0568E-07	-1.7950E-07	1.5286E-07	1.9380E-07
2.0402E-09	-2.1607E-07	-5.5798E-07	7.3149E-07
-5.3387E-08	-1.3945E-07	2.9930E-07	1.3564E-06
-5.9987E-08	-8.5356E-08	1.0217E-06	6.3186E-07
-2.1451E-09	-9.8400E-08	-5.6513E-08	-7.1835E-07
2.2988E-10	-7.8877E-08	-1.5722E-06	1.2805E-06
1.8836E-08	-5.2156E-08	7.6284E-07	1.8359E-06
5.1642E-08	-6.1700E-08	9.5955E-08	3.7143E-07
-6.7359E-09	-1.0232E-07	-2.1896E-07	1.3315E-06
-8.9649E-08	-1.4464E-07	2.5704E-07	1.3427E-06
-1.0443E-07	-1.0474E-07	6.0877E-07	1.0512E-06
-1.4149E-07	-4.8350E-08	-1.5253E-07	6.4651E-07
-1.2593E-07	3.1803E-08	-1.0221E-07	1.8872E-06
-3.2806E-08	3.4129E-08	1.1261E-06	1.3029E-06
3.1509E-08	1.5978E-08	5.7204E-08	4.7101E-07
5.8977E-08	-2.2675E-08	-1.4208E-07	1.9727E-06
8.0098E-08	-6.7039E-08	1.1677E-06	1.4364E-06
4.1294E-09	-1.2212E-07	3.9031E-07	1.3394E-06
-1.4029E-08	-1.6127E-07	1.5084E-06	1.3466E-06
-1.2812E-07	-1.4447E-07	4.0176E-07	5.0072E-07
-1.4587E-07	-4.7975E-08	1.0207E-06	1.8216E-06
-1.1150E-07	-6.1328E-09	1.7360E-06	4.4441E-07
-1.3676E-07	2.9746E-08	1.0803E-06	-2.2219E-07
-1.1052E-07	6.9403E-08	-4.9162E-07	-4.4741E-07
-5.3388E-08	5.2718E-08	-6.5619E-07	1.6706E-06
-2.7785E-08	3.2110E-08	8.5372E-07	1.5114E-06
-6.2528E-08	2.2411E-08	8.5378E-07	6.9952E-07
-8.1026E-08	4.1935E-08	-1.1413E-07	7.7984E-07
-5.6697E-08	5.0545E-08	8.4100E-07	1.8697E-06
-7.5352E-08	1.0329E-07	1.1220E-06	4.7443E-07
1.4809E-08	1.0097E-07	7.7995E-07	7.8851E-07
1.2507E-08	8.8005E-08	1.5998E-07	4.8283E-08
5.9451E-08	4.8683E-08	3.5519E-07	1.8073E-06
-1.1671E-09	-3.8242E-09	1.1224E-06	-4.0692E-07
-4.0030E-08	-1.6443E-08	-1.2717E-06	1.3195E-06
-2.5567E-08	-1.1483E-08	1.2687E-06	1.6066E-06
-7.1058E-08	1.4548E-08	-3.7499E-09	1.0188E-06
-1.0217E-07	8.5760E-08	1.5440E-06	1.4062E-06
8.4735E-09	1.1908E-07	1.8005E-07	-1.4936E-07
2.3374E-08	1.2345E-07	-3.0660E-07	1.5934E-06
7.9602E-08	1.2242E-07	7.4013E-07	2.0281E-06
1.5728E-07	4.5457E-09	1.8711E-06	1.1858E-06
1.3894E-07	-1.7890E-08	7.6654E-07	3.3746E-07
7.4947E-08	-7.3235E-08	1.2772E-06	9.2338E-07
-2.6976E-08	-3.2969E-08	4.6934E-07	-3.8540E-07
-5.5827E-08	-5.9141E-08	-2.3344E-07	1.4446E-06
-6.9896E-08	-2.9717E-08	1.5268E-06	1.0250E-06
-7.5412E-08	8.1309E-09	6.0267E-07	1.0733E-09
-3.1360E-08	7.7262E-08	4.7306E-07	5.2375E-07
-1.6309E-08	1.0015E-07	-1.1451E-07	-2.3190E-07
7.6503E-08	5.0349E-08	-1.3557E-06	1.7743E-06
1.0243E-07	6.4096E-09	1.5922E-06	2.6483E-06
2.2937E-08	-5.6770E-08	1.5527E-06	-1.0219E-07
3.4714E-08	-6.6149E-08	-1.9189E-07	5.9289E-07
-1.1727E-08	-5.0776E-08	7.4704E-07	1.4717E-06
-8.3713E-08	-2.9439E-08	1.1642E-06	1.9213E-07
-9.5763E-08	2.1746E-08	-5.0826E-07	4.1420E-07
-3.9985E-08	2.2128E-08	7.1663E-07	1.6844E-06
-5.0643E-08	2.8873E-08	4.8830E-07	-1.5004E-07
-6.8358E-08	4.0702E-08	-9.5105E-07	1.6321E-06
-7.0876E-08	5.1454E-08	1.2290E-06	2.1792E-06
-8.5865E-08	6.4543E-08	1.3133E-06	6.3670E-07
-7.2833E-08	4.8551E-08	3.1270E-07	5.5589E-07
-8.3835E-08	5.3427E-08	5.9521E-07	1.6294E-06
-5.4055E-08	2.2514E-08	1.6583E-06	3.3734E-07
-6.3451E-08	7.1678E-08	-3.1484E-07	7.4653E-08
1.7866E-08	4.6239E-08	4.7748E-07	1.2888E-06
-1.0885E-08	8.1695E-08	-1.1693E-07	3.8900E-07
-1.9991E-08	8.4813E-08	-2.0219E-08	2.0921E-06
-2.2121E-08	2.3751E-08	1.0222E-06	1.1766E-06
-5.4319E-08	3.9555E-08	5.1525E-07	1.6203E-06
-7.4665E-08	4.0038E-08	1.5610E-06	1.0989E-06
-6.7540E-08	5.6659E-08	7.4167E-07	6.6526E-07
-4.1593E-08	9.5159E-08	9.8315E-07	8.2747E-07
-6.1486E-08	1.0288E-07	4.6806E-07	7.1191E-07
-3.1815E-08	1.2830E-07	1.0081E-06	1.3727E-06
3.2285E-08	7.0403E-08	1.5457E-06	1.5226E-07
3.0299E-08	5.7877E-08	-2.2836E-07	-1.6730E-08
6.5110E-09	-5.2485E-09	5.3498E-07	1.7983E-06
-2.5094E-08	4.4558E-08	1.3244E-06	1.4613E-07
-3.1306E-08	5.6365E-08	2.1391E-07	9.1378E-07
-5.4217E-08	2.5203E-08	1.4632E-06	1.0019E-07
-3.5324E-08	3.7158E-08	-5.3940E-07	-5.3521E-08
-3.0977E-08	6.3062E-08	3.3910E-07	1.0264E-06
-4.8236E-08	9.9597E-08	-4.5911E-08	6.3983E-07
-4.3096E-08	8.7656E-08	5.6788E-07	7.3191E-07
8.7583E-09	7.2977E-08	-9.8904E-07	4.7681E-07
2.3511E-08	8.6043E-08	8.0365E-08	2.7371E-06
2.4742E-09	5.5760E-08	1.5844E-06	1.4655E-06
-2.4563E-09	4.9367E-08	1.5884E-06	3.8117E-07
-1.2254E-08	1.3849E-08	-2.2434E-07	-4.1044E-07
3.0017E-08	2.6053E-08	-3.0767E-07	1.7339E-06
9.9410E-09	2.2773E-08	7.1156E-07	1.2127E-06
-1.3467E-08	1.0341E-08	1.1375E-06	1.2990E-06
-1.4628E-08	2.8115E-09	6.5117E-07	-3.9838E-07
-3.4868E-08	-3.5532E-08	-6.8458E-07	1.3821E-06
-3.1901E-08	1.5541E-08	1.0302E-06	1.1893E-06
-5.3955E-08	3.8384E-08	2.1898E-07	8.2716E-07
-5.9604E-08	4.9425E-08	5.5870E-07	9.2820E-07
-6.1766E-08	6.9883E-08	1.8787E-07	1.2255E-06
-2.7795E-08	5.0567E-08	1.1839E-06	1.1011E-06
-2.4945E-08	5.7490E-08	7.2686E-07	1.2839E-07
1.4186E-08	1.4413E-08	-3.0207E-07	6.2074E-08
-4.3305E-08	1.2568E-08	-6.6090E-07	1.6226E-06
-1.4268E-08	5.3944E-08	7.5257E-07	1.2181E-06
-4.0192E-08	4.8356E-08	-2.6000E-07	1.2337E-06
-2.3979E-08	5.7988E-08	7.8807E-07	1.3320E-06
-5.0097E-08	5.3967E-08	-4.6850E-07	1.4613E-06
8.0872E-09	8.1984E-08	1.9508E-06	2.2137E-06
-2.6590E-08	6.3571E-08	3.4442E-07	-6.7955E-07
-3.0551E-08	4.4458E-08	-4.5057E-07	2.5067E-06
-1.3624E-08	8.8558E-08	1.8418E-06	1.0603E-06
1.2761E-08	4.4894E-08	1.5769E-07	7.1953E-07
-2.8310E-09	6.8587E-08	5.5132E-07	1.4997E-06
-2.2620E-08	3.4675E-08	1.3257E-06	1.7234E-06
-2.7738E-08	3.5526E-08	2.0626E-06	2.4994E-08
1.6414E-08	3.9079E-08	1.6632E-07	-6.1682E-07
5.8121E-09	2.4249E-08	-5.2984E-07	2.9062E-07
-3.8319E-08	-7.9491E-09	-3.4848E-07	1.3248E-06
-2.9538E-08	3.4126E-08	3.5896E-07	6.0466E-07
-3.6932E-08	6.7775E-08	-1.2125E-06	1.1520E-06
-2.1029E-09	4.0886E-08	2.8591E-07	2.5646E-06
-4.4814E-08	9.2043E-08	8.1438E-07	1.4423E-06
-1.8514E-08	1.0899E-07	7.0172E-07	1.2350E-06
-3.6288E-09	8.6239E-08	-9.8215E-08	1.0417E-06
2.2644E-08	5.8592E-08	2.0631E-07	2.4693E-06
2.2512E-08	5.0112E-08	1.5889E-06	1.8357E-06
2.0191E-08	5.6460E-08	1.2270E-06	9.5588E-07
7.1531E-08	5.4551E-08	8.3721E-07	9.7165E-07
-2.2077E-09	2.3098E-08	8.2127E-07	1.0102E-06
2.8331E-08	2.1190E-08	7.2192E-07	1.0305E-06
-1.2167E-08	4.1146E-08	9.2149E-07	8.0069E-07
1.4370E-08	-9.6470E-09	-6.3732E-08	6.3410E-07
2.5698E-08	2.0343E-09	3.1931E-07	2.1710E-06
-2.5939E-08	2.4207E-08	1.6158E-06	1.1351E-06
1.9717E-08	2.5040E-08	4.3216E-07	6.7474E-07
-9.4847E-10	4.8650E-08	6.8213E-07	1.5258E-06
1.7045E-08	2.2426E-08	1.1896E-06	1.0299E-06
7.4768E-09	1.4599E-08	5.9916E-07	8.0328E-07
4.4110E-08	-3.5725E-09	1.0097E-06	1.6194E-06
1.0619E-09	3.6611E-08	1.8853E-06	1.4294E-07
-1.6366E-08	9.6276E-09	-3.5200E-07	-2.1327E-07
-4.6557E-08	4.7194E-09	7.7601E-08	1.7152E-06
-3.1139E-08	3.7750E-08	9.1139E-07	1.1526E-06
-6.0651E-08	6.2174E-08	1.2225E-06	1.0084E-06
-2.4372E-08	5.9096E-08	6.4575E-07	-2.7497E-07
-5.6030E-09	6.9382E-08	-4.8300E-07	1.1597E-06
3.6810E-08	5.7967E-08	8.9387E-07	1.0348E-06
-1.9012E-08	3.4198E-08	-1.9369E-07	1.0052E-06
-1.1675E-09	5.7963E-08	1.3531E-06	1.6705E-06
2.6102E-08	1.4573E-08	7.5000E-07	-4.1715E-07
1.6148E-08	6.5264E-08	-7.2944E-07	8.4246E-07
-1.5665E-08	4.4882E-08	-1.9796E-08	1.4741E-06
-1.7281E-08	6.0369E-08	2.2408E-07	1.7265E-06
2.8305E-08	5.5059E-08	9.1257E-07	1.5783E-06
3.8110E-08	5.6143E-08	9.8741E-07	8.9048E-07
2.4568E-08	2.2883E-08	7.4547E-08	6.1091E-07
4.3898E-08	5.8634E-08	9.8724E-08	1.9697E-06
1.3140E-08	5.6555E-08	1.3438E-06	1.2100E-06
1.6424E-08	1.5330E-08	2.2292E-07	9.7115E-07
1.2197E-08	3.8106E-08	1.0641E-06	1.5502E-06
-6.5285E-09	5.3650E-08	7.3576E-07	5.2718E-07
