jMRUI Data Textfile

Filename: Export_to_jmrui.txt

PointsInDataset: 2048
DatasetsInFile: 1
SamplingInterval: 0.250000
ZeroOrderPhase: 0E0
BeginTime: 0E0
TransmitterFrequency: 1.2326E8
MagneticField: 2.8936E0
TypeOfNucleus:  
NameOfPatient:  
DateOfExperiment:  
Spectrometer:  
AdditionalInfo: 
SignalNames:  


Signal and FFT
sig(real)	sig(imag)	fft(real)	fft(imag)
Signal 1 out of 1 in file
1.4898E-06	7.1569E-07	-9.6633E-08	1.9648E-07
8.6590E-07	2.0946E-07	1.7049E-07	3.7051E-07
4.4234E-07	-1.6486E-07	-1.9271E-07	1.9150E-07
3.0198E-07	-3.0349E-07	6.2884E-08	4.9119E-07
-1.3979E-07	-3.9069E-07	-5.6906E-07	2.0685E-07
-3.3460E-07	-2.3307E-07	-4.5383E-07	1.5658E-06
-4.7887E-07	-5.2491E-08	6.6803E-07	1.3513E-06
-3.2290E-07	1.3011E-07	9.6617E-07	8.2274E-07
-1.8062E-07	1.7271E-07	5.0482E-07	2.5241E-08
-5.7403E-09	6.8530E-08	-1.5362E-07	7.5640E-07
1.1383E-07	-5.0180E-08	4.5359E-07	9.5238E-07
1.6599E-07	-2.0647E-07	6.1113E-07	8.0371E-07
-4.7486E-08	-2.4875E-07	5.6085E-07	2.2660E-07
-1.7083E-07	-2.7110E-07	-1.9582E-07	6.0971E-07
-3.2625E-07	-1.6775E-07	2.6925E-07	9.1828E-07
-3.3763E-07	2.9159E-09	-1.3639E-07	8.9833E-07
-2.5232E-07	9.5399E-08	3.0532E-07	1.8364E-06
-1.1838E-07	6.2845E-08	1.5388E-06	1.2403E-06
-6.0463E-08	-2.9355E-09	7.2467E-07	-1.4363E-08
-6.3520E-08	-7.2270E-08	-2.1580E-08	1.3358E-06
-9.5331E-08	-1.5406E-07	1.7401E-06	1.0901E-06
-2.0764E-07	-1.5723E-07	6.6020E-07	-5.0616E-07
-3.2447E-07	-7.5169E-08	-4.1812E-07	6.5400E-07
-2.7318E-07	7.0921E-08	1.5070E-07	1.3462E-06
-2.3062E-07	9.3110E-08	7.2375E-07	1.5472E-06
-8.6400E-08	1.6183E-07	1.5095E-06	9.0799E-07
-1.9720E-08	9.1585E-08	7.0690E-07	-1.0352E-07
1.9381E-08	-8.8593E-09	-1.6710E-07	6.9726E-07
-3.1701E-08	-4.0767E-08	2.8162E-07	1.3835E-06
-4.8860E-08	-9.8798E-08	1.0210E-06	1.1552E-06
-1.6396E-07	-1.2771E-07	2.8333E-07	4.6603E-07
-2.1668E-07	1.8625E-08	2.4459E-07	1.7940E-06
-1.8153E-07	1.0696E-07	7.8372E-07	1.1863E-06
-1.2587E-07	2.1189E-07	8.4961E-07	2.7138E-06
-4.4649E-08	1.6589E-07	3.5738E-06	8.1074E-07
7.4406E-08	1.6195E-07	7.5999E-07	-9.9140E-07
5.7822E-08	3.9500E-08	3.4415E-07	5.3015E-07
1.0441E-07	9.2040E-09	-1.3974E-07	1.1957E-06
3.9708E-08	2.8151E-08	1.7653E-06	2.3208E-06
7.3412E-08	7.6302E-08	2.4665E-06	3.4388E-07
6.2804E-08	2.1220E-08	1.7678E-06	-5.3481E-07
1.2129E-07	4.6037E-08	8.8858E-08	-7.4164E-07
1.3348E-07	2.6119E-08	-9.4047E-08	9.8003E-07
1.5314E-07	-3.0865E-08	8.8735E-07	1.3265E-06
1.1267E-07	-7.2180E-08	1.8288E-06	4.8000E-07
9.0501E-08	-1.2678E-07	4.0566E-07	-3.4360E-07
4.7131E-08	-1.5835E-07	4.7610E-07	9.2111E-07
9.1073E-09	-8.8497E-08	6.6921E-07	7.1732E-07
5.1171E-09	-2.5082E-08	1.4539E-06	8.2053E-07
5.7375E-08	4.4293E-08	5.7082E-07	-3.0201E-07
8.6180E-08	-2.5259E-08	6.8257E-07	9.5413E-07
1.0118E-07	-8.2443E-08	5.0054E-07	-2.7064E-07
7.2150E-08	-1.0044E-07	-1.3753E-07	1.5334E-06
4.8301E-08	-1.1702E-07	1.6293E-06	9.8266E-07
-2.1850E-08	-1.1875E-07	1.0926E-06	1.3514E-07
-9.4125E-08	-1.0282E-07	3.3835E-07	-1.4180E-07
-7.1129E-08	-6.5613E-08	-1.7657E-08	1.0167E-06
-7.6860E-08	-4.5194E-09	5.5693E-07	8.3901E-07
-2.7596E-08	4.4429E-08	6.0516E-07	1.6906E-06
4.8466E-08	6.8349E-08	2.1868E-06	4.9672E-07
9.6322E-08	3.5206E-09	1.0449E-07	-6.1855E-07
1.0920E-07	-6.0291E-08	-2.0496E-07	1.4636E-06
4.4908E-08	-1.2625E-07	1.2604E-06	1.1908E-06
1.0767E-08	-1.2596E-07	6.2113E-07	8.2594E-07
-8.9981E-08	-7.3520E-08	1.6499E-06	1.2684E-06
-1.1735E-07	-5.7323E-08	1.1039E-06	-4.3258E-07
-1.0769E-07	-3.1452E-08	2.1280E-07	9.4839E-07
-1.1339E-07	2.0314E-08	1.1889E-06	5.2661E-07
-9.7618E-08	7.5863E-08	4.9873E-07	6.5231E-07
-3.6365E-08	5.8656E-08	1.0625E-06	7.2935E-07
-3.1940E-08	6.7526E-08	9.8945E-07	3.9643E-07
-4.5019E-08	8.7291E-08	5.5022E-07	2.0532E-08
-5.8148E-08	3.2373E-08	1.7740E-07	7.9362E-07
-2.2524E-08	6.6891E-08	4.8439E-07	6.6533E-07
5.4687E-09	9.2971E-08	4.3418E-07	1.3664E-06
4.1191E-08	9.2250E-08	1.2475E-06	7.1727E-07
3.7906E-08	7.3776E-08	4.5584E-07	8.0074E-07
5.7062E-08	1.2823E-08	9.6308E-07	1.1003E-06
1.0869E-08	-5.4712E-08	1.5117E-06	1.0277E-06
1.6022E-08	2.6657E-08	1.2730E-06	-6.7198E-07
-4.6199E-08	5.6480E-08	-5.7692E-07	8.0858E-07
4.4469E-09	4.7045E-08	1.3383E-06	8.8106E-07
-5.1830E-08	5.3915E-08	-2.9589E-07	6.2645E-07
4.0935E-08	7.4514E-08	1.3963E-06	1.7629E-06
5.3494E-08	9.6996E-08	8.2192E-07	3.1346E-07
1.0800E-07	6.2237E-08	1.2229E-06	1.2414E-06
6.9166E-08	6.2872E-08	8.9171E-07	1.3313E-07
8.4000E-08	1.4971E-08	1.0610E-06	1.1015E-06
6.3987E-08	-7.2172E-08	8.3148E-07	-2.3642E-07
2.8734E-08	-4.7988E-08	2.4748E-07	1.5479E-06
-2.5331E-08	2.6354E-08	2.0667E-06	3.2349E-07
-4.0902E-08	6.2038E-08	3.7742E-09	-1.6514E-07
-5.1786E-10	4.2837E-08	6.6885E-07	1.2356E-06
2.1950E-08	2.5096E-08	1.0443E-06	4.4074E-07
1.6390E-08	2.3420E-08	7.2021E-07	4.4145E-07
3.8284E-08	3.7381E-08	6.0542E-07	3.8679E-07
3.1217E-08	5.0319E-08	4.2258E-07	3.9523E-07
2.7715E-08	1.3590E-08	-1.2674E-07	7.0775E-07
3.7161E-08	-1.9749E-08	4.9151E-07	1.7604E-06
1.3815E-08	-5.6445E-08	1.4047E-06	8.4409E-07
-2.2919E-08	-4.0597E-08	5.7391E-07	5.6756E-07
-2.1295E-08	2.0843E-08	5.6784E-07	9.0072E-07
-1.6082E-09	2.3166E-08	5.5843E-07	1.5304E-06
6.1989E-09	-2.0981E-08	2.0571E-06	1.2257E-06
-1.2716E-08	-3.4233E-08	1.2071E-06	-2.8530E-07
-5.0966E-08	-6.7157E-09	5.4528E-07	3.9040E-07
-6.1963E-08	6.1819E-08	3.2773E-07	5.4602E-07
-7.0106E-08	3.6404E-08	9.5862E-07	1.0647E-06
-4.8266E-08	6.7537E-08	3.0752E-07	4.2481E-08
4.8709E-10	6.5840E-08	2.9666E-07	2.2216E-06
-4.3492E-08	7.2007E-08	2.4274E-06	3.8815E-07
-4.7880E-08	2.4619E-08	-6.8729E-08	3.4912E-08
-4.0357E-09	2.9984E-08	1.1001E-06	1.2181E-06
2.4320E-10	5.6018E-08	5.3896E-07	3.7661E-07
-1.9344E-08	4.1388E-08	1.1832E-06	1.2591E-06
-7.3219E-08	4.0436E-08	1.0266E-06	-2.6510E-07
-3.1924E-08	4.1053E-08	-1.8105E-07	8.4010E-07
-6.9365E-08	3.7867E-08	9.5176E-07	1.2880E-06
-2.5594E-08	8.1687E-08	8.4290E-07	7.1909E-07
-3.2263E-08	4.3437E-08	9.1805E-07	1.1916E-06
-2.4400E-08	6.0936E-08	1.5688E-06	6.3719E-07
3.5304E-09	1.0572E-07	1.0354E-06	1.6419E-07
2.6084E-08	8.7315E-08	9.0222E-07	-5.3879E-08
1.3010E-08	4.9366E-08	-2.9515E-07	7.1787E-08
-3.1614E-08	8.4091E-09	2.3554E-07	1.5758E-06
-4.4229E-08	1.3322E-08	1.1313E-06	6.4062E-07
-6.6661E-08	3.4540E-08	8.9989E-08	6.8763E-07
-1.0571E-07	1.5611E-08	7.8937E-07	1.5315E-06
-9.6986E-08	8.3197E-08	1.1864E-06	7.6340E-07
-6.1724E-08	7.6139E-08	9.9341E-07	8.0050E-07
-5.2934E-08	7.7639E-08	9.6039E-07	2.0408E-07
-4.5459E-08	5.5240E-08	2.5560E-07	7.1131E-07
7.6931E-09	6.2664E-08	6.3039E-07	6.4695E-07
3.8362E-09	7.7232E-08	9.8058E-08	1.4739E-06
7.0829E-10	7.0939E-08	1.9413E-06	1.2198E-06
-1.4364E-08	3.5140E-08	6.6143E-07	-9.5953E-08
1.0477E-08	8.2921E-09	6.2659E-07	8.0875E-07
-1.9395E-08	3.8592E-08	1.5584E-07	6.9982E-07
8.2389E-10	-3.7751E-08	1.0568E-06	1.6286E-06
3.2978E-10	1.5140E-08	1.1361E-06	3.3086E-07
-5.0489E-08	-1.5358E-08	5.4150E-07	8.6766E-07
-2.8234E-09	-3.5076E-08	8.2584E-07	1.1491E-06
-6.5467E-08	2.8383E-09	1.8349E-06	7.8615E-07
-5.9290E-08	-1.5078E-08	5.6123E-07	-6.4526E-07
-5.7176E-08	-1.7120E-08	-1.9813E-07	1.0741E-06
-3.5577E-08	-2.4472E-09	8.8308E-07	1.2491E-06
-4.3556E-08	9.3793E-09	1.3293E-06	5.5842E-07
-6.4842E-08	-8.8408E-10	8.2149E-08	1.8916E-07
-4.1452E-08	-1.5811E-08	8.6867E-07	1.4189E-06
-4.7999E-08	5.4136E-09	5.3599E-07	2.3977E-08
-8.9422E-08	-9.7967E-09	4.8834E-07	1.6586E-06
-1.1635E-08	4.0579E-08	1.3133E-06	-1.6950E-07
-4.4721E-08	4.1198E-09	-8.4881E-07	7.1224E-07
-7.9856E-08	2.0004E-08	4.1407E-07	2.1401E-06
-6.8252E-08	7.2879E-09	1.6338E-06	1.4905E-06
-3.7466E-08	3.8633E-08	9.0824E-07	3.4639E-07
-3.1148E-08	2.8690E-08	9.9581E-07	1.4581E-06
-5.6134E-08	3.8434E-08	1.1693E-06	-1.6184E-07
-2.3158E-08	6.7409E-08	-3.7441E-07	1.4710E-06
-1.4390E-08	5.6484E-08	1.9515E-06	1.7792E-06
-1.1710E-08	-4.3508E-09	1.9275E-06	-2.9611E-08
3.8153E-09	2.8057E-08	2.9274E-07	-5.6983E-07
-1.0269E-08	2.6118E-08	8.0791E-08	1.1189E-06
-4.5822E-08	-6.1041E-09	4.8952E-07	3.3164E-07
-7.7298E-08	2.2701E-08	2.4309E-07	1.9489E-06
-3.9809E-08	-5.0282E-09	2.0284E-06	1.4073E-07
-2.2576E-08	1.9763E-08	-4.6550E-07	2.8462E-07
-2.7269E-08	1.1699E-07	7.8285E-07	1.0293E-06
-4.0278E-08	6.5047E-08	-3.4773E-08	8.4192E-07
-2.7046E-08	6.1145E-08	6.0634E-07	1.1434E-06
1.7232E-08	5.2481E-08	2.0540E-07	1.7165E-06
4.6537E-08	1.9558E-09	1.9871E-06	9.4461E-07
5.6075E-09	4.0917E-08	-2.3925E-07	3.2197E-07
2.9502E-08	5.3600E-08	1.1728E-06	1.7380E-06
1.2492E-08	2.5980E-08	4.6406E-07	3.3765E-07
1.0085E-08	8.6030E-09	7.0869E-07	1.5325E-06
2.7159E-08	-2.0514E-08	5.4782E-07	8.4259E-07
3.1149E-09	9.2396E-10	1.1680E-06	1.5897E-06
-4.2926E-08	2.4889E-08	5.8170E-07	2.2266E-07
-1.7306E-08	9.5376E-09	3.0682E-07	2.3179E-06
4.3767E-08	1.7529E-08	2.4774E-06	1.1298E-06
3.7913E-08	2.1148E-08	1.0549E-06	-2.1696E-07
3.4747E-08	1.7190E-08	3.2191E-07	5.3260E-07
-8.0305E-09	-3.0731E-08	5.0516E-07	9.6066E-07
3.3132E-08	-4.6729E-08	7.4812E-07	1.0444E-06
-5.5572E-09	-1.6961E-08	9.5236E-07	5.9613E-07
-3.4760E-08	-2.1699E-08	-5.4299E-08	5.7696E-07
-3.3111E-08	-1.1808E-08	3.5832E-07	1.7905E-06
-6.0967E-08	-4.0855E-09	1.1220E-06	1.1702E-06
-4.1466E-08	2.6119E-08	5.6434E-07	9.4686E-07
-2.2888E-09	5.4732E-08	6.1630E-07	1.6587E-06
-5.5328E-08	2.1351E-08	1.6203E-06	1.1948E-06
-3.3838E-08	2.1997E-08	5.3871E-07	5.6056E-07
-4.2176E-09	1.5166E-08	9.7013E-07	1.6132E-06
-1.5884E-08	-9.2965E-09	9.1905E-07	7.3054E-07
-1.6243E-08	2.4020E-09	1.0693E-06	1.8468E-06
-3.9456E-09	1.2609E-08	1.8368E-06	3.1608E-07
-2.3211E-08	2.5874E-08	4.0678E-07	9.7714E-07
-1.7823E-08	2.6088E-08	1.8678E-06	8.1550E-07
-1.2640E-08	3.2523E-08	5.3000E-07	6.2218E-08
-2.7073E-09	-2.0372E-08	1.0927E-06	7.8567E-07
-1.2673E-08	1.6098E-08	1.7316E-07	-4.1055E-07
9.7403E-09	-1.4997E-08	-8.1940E-07	1.4563E-06
-8.2327E-09	1.6518E-08	6.6969E-07	2.1208E-06
-3.8072E-08	-1.4456E-08	1.2550E-06	1.5594E-06
-3.0343E-09	-8.2795E-09	1.3019E-06	1.0743E-06
-4.7660E-08	1.3928E-08	1.1441E-06	8.3239E-07
