jMRUI Data Textfile

Filename: Export_to_jmrui.txt

PointsInDataset: 2048
DatasetsInFile: 1
SamplingInterval: 0.250000
ZeroOrderPhase: 0E0
BeginTime: 0E0
TransmitterFrequency: 1.2326E8
MagneticField: 2.8936E0
TypeOfNucleus:  
NameOfPatient:  
DateOfExperiment:  
Spectrometer:  
AdditionalInfo: 
SignalNames:  


Signal and FFT
sig(real)	sig(imag)	fft(real)	fft(imag)
Signal 1 out of 1 in file
1.5572E-06	7.9344E-07	4.7936E-07	2.1186E-07
6.4195E-07	2.0573E-07	1.0843E-06	4.2860E-07
3.3635E-07	-1.2996E-07	-1.6149E-07	-6.7475E-08
2.1780E-07	-1.6668E-07	7.7373E-07	1.6635E-06
-9.4345E-08	-2.0285E-07	1.5965E-06	-1.0877E-07
-2.4265E-07	-4.0701E-08	3.4685E-07	-2.2150E-07
-3.3471E-07	2.7289E-08	-2.0054E-07	3.7154E-07
-2.0357E-07	1.2694E-07	6.6466E-07	1.4423E-06
-1.1419E-07	1.3749E-07	1.1938E-06	-1.1626E-08
4.9272E-08	1.3462E-07	-1.7092E-07	5.2597E-07
1.1011E-07	-7.3949E-08	8.2765E-07	1.3497E-06
9.5619E-08	-1.6075E-07	1.4323E-06	4.7025E-07
-7.1644E-08	-1.8647E-07	6.3386E-07	-1.5376E-07
-9.0093E-08	-1.7717E-07	2.5587E-07	3.8316E-07
-2.1670E-07	-3.9869E-08	-1.3025E-07	5.8252E-07
-1.7451E-07	2.0118E-08	6.1078E-07	1.8245E-06
-9.3309E-08	5.2200E-09	1.4163E-06	3.8419E-07
-4.6415E-08	-2.3706E-08	4.7515E-07	8.9919E-07
-7.3768E-08	-6.2979E-08	1.2976E-06	1.6027E-07
-4.1151E-08	-1.0660E-07	-5.1435E-07	7.9118E-07
-1.5283E-07	-1.2804E-07	1.7981E-06	1.8827E-06
-1.9080E-07	-7.5328E-08	1.4445E-06	-6.7264E-07
-2.1011E-07	-2.6919E-08	-2.1735E-07	1.0838E-07
-1.5959E-07	-4.6053E-08	-8.8937E-08	1.0755E-06
-1.0390E-07	3.4450E-09	6.7550E-07	1.4180E-06
-1.2086E-08	-2.8597E-08	8.7878E-07	1.0368E-06
1.5593E-08	-1.8381E-08	1.0965E-06	7.5776E-07
2.6441E-08	-9.8131E-08	1.8345E-07	4.6158E-07
-6.7517E-09	-1.6399E-07	3.5154E-07	1.6482E-06
-8.5727E-08	-1.4610E-07	8.2759E-07	1.4921E-06
-1.4813E-07	-9.6408E-08	1.5459E-06	1.7593E-06
-1.7309E-07	-1.3761E-09	1.3817E-06	5.2631E-07
-1.8728E-07	1.4981E-08	1.1771E-06	1.7433E-06
-1.1330E-07	1.2087E-07	2.3674E-06	2.8073E-07
-3.5063E-08	7.7146E-08	7.5776E-07	4.0738E-07
4.7201E-08	9.8945E-08	1.5560E-06	1.8614E-07
3.7201E-08	1.3527E-08	-3.1285E-07	7.6253E-07
7.0097E-08	-1.7319E-10	2.2919E-06	2.0331E-06
4.5342E-08	-5.6536E-08	1.4904E-06	-7.2219E-07
2.8792E-08	-4.7377E-08	7.5590E-07	1.1130E-06
6.4595E-08	3.5314E-09	1.6827E-06	-1.2538E-07
5.2941E-08	-3.8336E-08	1.7224E-07	2.4227E-07
4.2303E-08	-5.1158E-08	7.5190E-07	1.0783E-06
3.4886E-08	-7.1139E-08	1.4023E-06	8.7518E-07
7.1498E-08	-1.1759E-07	1.0607E-06	-7.4547E-08
4.4215E-08	-1.3130E-07	1.3335E-07	7.1559E-07
1.2428E-08	-1.4028E-07	7.9032E-07	1.3456E-06
-1.0817E-08	-1.0906E-07	1.4050E-06	1.3009E-06
-1.3993E-08	-7.2374E-08	1.6565E-06	7.0152E-07
1.3366E-08	-5.3839E-08	1.7517E-06	4.2955E-07
3.8138E-08	-5.8063E-08	1.0147E-06	-6.0540E-07
-5.9941E-09	-6.0992E-08	-1.1538E-08	9.0609E-07
1.9172E-08	-8.2322E-08	1.5649E-06	9.1603E-07
1.8172E-08	-1.0887E-07	8.6626E-07	2.4380E-07
-1.1322E-08	-1.3264E-07	1.0954E-06	5.3225E-07
-6.2994E-08	-1.4234E-07	5.1994E-07	1.5611E-07
-5.7594E-08	-1.4264E-07	4.0859E-07	1.1136E-06
-8.4008E-08	-7.2928E-08	1.1781E-06	1.0877E-06
-9.0967E-08	-6.0455E-08	1.1070E-06	7.4976E-07
-4.7120E-08	1.0256E-08	1.2382E-06	8.8266E-07
1.7951E-08	1.2629E-08	1.3080E-06	6.0540E-07
7.9582E-08	-7.1336E-08	1.5196E-06	5.4670E-07
2.3681E-08	-1.2078E-07	1.0024E-06	-1.7779E-07
-1.1361E-08	-9.1719E-08	8.2587E-07	8.5317E-07
-1.3903E-08	-1.2376E-07	1.2804E-06	-2.9500E-07
-5.4401E-08	-1.2105E-07	-1.7068E-07	9.6378E-07
-1.4861E-07	-1.0425E-07	2.2435E-06	9.2147E-07
-1.7648E-07	-2.8651E-08	6.3321E-07	-7.6732E-07
-1.7047E-07	1.8120E-08	6.3961E-07	5.2247E-07
-1.1628E-07	-5.4571E-09	2.7504E-07	-3.0076E-07
-1.7805E-08	5.2160E-08	-1.1374E-07	8.8983E-07
-9.7627E-08	8.2611E-08	3.1736E-07	6.6312E-07
-6.4451E-08	8.3415E-08	-3.3098E-08	1.3375E-06
-3.8641E-08	7.6889E-08	9.3284E-07	1.5691E-06
-1.9111E-08	5.5269E-08	1.0083E-06	1.0462E-06
2.5315E-08	4.6204E-08	1.1951E-06	1.1999E-06
3.0105E-08	-1.6721E-08	1.2971E-06	3.1520E-07
1.7429E-08	-4.4017E-08	2.3464E-07	8.9586E-07
-4.5818E-08	-2.9941E-08	1.4802E-06	1.2056E-06
-4.2451E-08	2.5753E-08	8.3498E-07	3.1300E-07
-1.0173E-07	1.5305E-08	9.2222E-07	8.0420E-07
-4.8190E-08	3.5185E-08	2.8295E-07	6.6568E-07
-7.5888E-08	6.8779E-08	1.4058E-06	1.6262E-06
-2.3261E-08	5.8493E-08	9.3447E-07	-4.8750E-07
7.8742E-09	7.0852E-08	-5.8742E-07	1.7383E-06
3.2501E-08	4.9386E-08	1.8397E-06	1.9195E-06
7.1808E-08	1.3549E-08	1.5404E-06	6.6586E-07
8.8180E-08	-2.7728E-08	1.2438E-06	5.4201E-07
7.4804E-09	-3.3770E-08	1.0129E-06	6.3824E-07
-1.4961E-08	-4.4793E-08	7.8910E-07	3.1516E-07
-7.4706E-08	-2.3022E-08	1.9360E-07	1.3703E-06
-6.9157E-08	5.0332E-08	1.7380E-06	1.4666E-06
-3.6197E-08	2.3845E-08	1.3610E-06	3.6334E-07
-1.1647E-09	7.2627E-08	9.2017E-07	4.5800E-07
-1.4690E-08	4.2837E-08	4.6202E-07	8.3696E-07
-1.5405E-08	2.7632E-08	1.0115E-06	1.3294E-06
-2.5362E-08	1.6211E-08	1.2077E-06	1.1581E-06
-6.8111E-09	8.3461E-09	1.7214E-06	9.3669E-07
-3.9966E-08	-2.8679E-08	1.2989E-06	2.9102E-07
-3.2049E-08	2.7986E-09	1.0449E-06	4.5876E-07
-1.1737E-07	2.0090E-08	7.2972E-07	6.4793E-07
-5.1546E-08	1.3483E-08	1.2819E-06	7.4499E-07
-1.5018E-08	1.0239E-08	4.9366E-07	3.1935E-07
-2.6671E-09	-2.7892E-09	9.3279E-07	1.3693E-06
-3.4168E-08	-4.8296E-09	1.0273E-06	5.0395E-07
-1.0239E-07	1.2674E-08	1.0230E-06	1.3115E-06
-9.3665E-08	3.3970E-08	1.3093E-06	1.9761E-07
-7.6110E-08	1.5711E-08	3.6692E-07	1.1929E-06
-1.1025E-07	3.6220E-08	1.5939E-06	9.2825E-07
-8.3041E-08	7.0734E-08	7.8216E-07	8.6766E-07
-5.5170E-08	1.0157E-07	1.8102E-06	8.9193E-07
-6.0666E-08	3.7489E-08	8.3717E-07	-7.6081E-08
-6.8849E-08	4.0940E-08	4.6564E-07	9.8181E-07
-6.5682E-08	5.6640E-08	9.4116E-07	1.2522E-06
-8.3270E-08	5.0870E-08	1.6450E-06	1.2074E-06
-5.0238E-08	1.9195E-08	1.6177E-06	1.1881E-07
-9.1351E-08	5.2203E-08	4.9274E-07	3.6575E-07
-7.6042E-08	4.4706E-08	9.8634E-07	1.1786E-06
-4.2429E-08	8.1447E-08	1.2619E-06	7.7769E-07
-7.8094E-08	1.0203E-07	1.5289E-06	7.8909E-07
-6.2172E-08	8.9528E-08	1.0764E-06	-8.1852E-08
-7.3571E-08	8.1238E-08	7.0207E-07	1.1770E-06
-2.8936E-08	4.9237E-08	2.0112E-06	1.5660E-07
-3.8869E-08	5.1359E-08	2.3880E-07	-2.5017E-07
-3.0686E-09	3.0531E-08	5.3393E-07	8.8718E-07
-3.9045E-08	2.0012E-08	8.1831E-07	8.7120E-07
-7.4176E-08	3.1158E-08	1.2943E-06	4.3699E-07
-5.8114E-08	5.5506E-08	3.1315E-07	2.1040E-07
-4.9496E-08	1.1028E-07	6.2575E-07	8.6109E-07
-6.0922E-08	1.1877E-07	2.8562E-07	7.1662E-07
-5.4114E-08	1.2938E-07	8.0998E-07	1.3957E-06
-5.1247E-08	1.1992E-07	8.3961E-07	7.9231E-07
-1.4275E-08	1.1023E-07	1.0383E-06	1.4353E-06
1.1814E-08	7.5139E-08	1.6526E-06	3.3925E-07
4.6651E-08	6.9380E-08	2.4408E-07	2.1468E-07
-4.4159E-09	3.4739E-08	5.7665E-07	1.3537E-06
-9.6667E-09	1.2481E-08	1.1993E-06	8.5031E-07
2.9150E-09	3.1324E-09	8.7796E-07	5.0218E-07
-3.5012E-08	5.6080E-08	1.3632E-07	6.5558E-07
-5.2348E-08	7.6105E-08	8.5451E-07	2.0699E-06
-3.2701E-08	5.8434E-08	2.0878E-06	1.6084E-07
-1.4993E-08	4.2431E-08	-2.1595E-07	1.5911E-07
-5.1086E-08	7.1578E-08	5.2459E-07	1.1567E-06
-1.7818E-08	2.3002E-08	-1.6349E-07	1.3522E-06
-6.6865E-08	5.0876E-08	1.4080E-06	2.1476E-06
-2.1882E-08	3.4628E-08	9.7467E-07	7.9512E-07
-7.2327E-08	3.6840E-08	1.1501E-06	1.8346E-06
-5.1525E-08	6.7226E-08	1.5969E-06	9.5082E-07
-4.6832E-08	5.7171E-08	1.4024E-06	8.7387E-07
-6.0408E-08	7.2395E-08	7.6242E-07	6.6646E-07
-7.4276E-08	1.1042E-07	1.3512E-06	1.5647E-06
-3.4867E-08	8.4147E-08	1.3058E-06	3.9874E-07
-3.3713E-08	7.1197E-08	1.0483E-06	1.4475E-06
-4.6623E-08	5.3833E-08	1.8052E-06	4.0274E-07
-4.7541E-08	7.4279E-08	8.2885E-07	6.3671E-07
-3.8705E-08	7.0377E-08	1.2550E-06	3.7966E-07
-3.9667E-08	4.8944E-08	2.3962E-07	6.7136E-07
-6.3317E-08	5.8464E-08	1.0009E-06	1.3191E-06
-3.6184E-08	6.2743E-08	1.0070E-06	9.1311E-07
-4.2969E-08	1.0421E-07	1.2534E-06	1.0022E-06
-3.6581E-08	6.6322E-08	9.9317E-07	3.9240E-07
-3.9839E-09	4.8430E-08	3.8702E-07	9.5317E-07
-5.5775E-09	5.2455E-08	8.8041E-07	1.2710E-06
-4.8461E-08	1.0174E-07	7.5136E-07	1.3118E-06
-6.6359E-08	3.1643E-08	1.5966E-06	1.6712E-06
-4.2866E-08	3.5665E-08	1.6108E-06	2.8180E-07
-7.0799E-08	8.2817E-08	3.9620E-07	1.0229E-06
-4.7563E-08	4.0339E-08	1.7041E-06	1.4092E-06
-1.5428E-08	1.0889E-07	1.1339E-06	1.5781E-07
-4.3307E-08	1.0892E-07	4.4194E-07	1.2237E-06
9.7461E-09	8.1714E-08	1.3131E-06	1.4352E-06
3.2799E-08	7.7009E-08	1.6199E-06	9.7387E-07
2.6067E-08	6.0322E-08	8.8601E-07	2.8677E-07
5.8761E-08	4.5536E-08	5.1481E-07	2.1234E-06
4.2609E-08	4.9029E-08	3.0575E-06	1.1290E-06
3.8569E-08	2.5214E-08	8.2131E-07	-5.0230E-07
-2.2642E-08	4.0750E-08	1.1004E-06	1.4299E-06
-3.2751E-08	6.9193E-08	1.4968E-06	9.5075E-08
2.7987E-11	8.9537E-08	6.1761E-07	7.7981E-07
-6.4026E-09	8.2617E-08	1.1850E-06	8.5073E-07
6.5590E-09	6.2321E-08	1.0820E-06	7.0968E-07
3.2015E-09	6.5591E-08	9.4996E-07	7.6823E-07
1.6651E-08	2.9954E-08	1.3018E-06	8.2484E-07
1.7001E-08	5.3432E-08	8.4356E-07	2.7865E-07
1.5133E-08	1.0933E-08	6.3542E-07	9.6165E-07
8.3636E-09	2.5438E-08	6.8437E-07	8.8916E-07
-3.9803E-08	1.1172E-08	9.9770E-07	1.5612E-06
-5.3435E-08	5.7445E-08	1.5015E-06	7.7488E-07
-1.4081E-08	4.4156E-08	1.1033E-06	9.7784E-07
-2.1806E-08	5.0477E-08	1.4878E-06	2.6434E-07
7.5892E-09	5.8702E-08	-9.4370E-08	4.5391E-07
2.0965E-08	6.2382E-08	8.1583E-07	2.1256E-06
-4.4830E-08	6.7713E-08	1.9544E-06	7.3979E-07
3.7425E-08	6.1284E-08	3.0915E-07	4.5534E-07
2.0993E-08	3.2953E-08	8.5516E-07	2.0761E-06
-5.4715E-09	3.3821E-08	2.0167E-06	1.2141E-06
1.7178E-08	4.5347E-08	1.6145E-06	8.2436E-07
3.1534E-08	3.1230E-08	1.9757E-06	2.3932E-07
-2.7465E-08	4.1238E-08	3.4210E-07	-5.0255E-07
1.8852E-08	5.6806E-08	-1.2107E-07	1.7494E-06
1.5532E-08	4.5197E-08	1.8047E-06	1.4659E-06
3.0254E-08	7.6506E-09	1.2315E-06	7.1708E-07
-2.8045E-09	2.0301E-08	1.2787E-06	5.3639E-07
1.8692E-08	-3.0097E-08	2.8275E-07	1.1469E-06
3.0821E-09	1.3456E-08	2.0518E-06	1.6164E-06
-6.1085E-08	4.1042E-08	1.2570E-06	2.0348E-07
3.4013E-09	4.3484E-08	1.6747E-06	8.4921E-07
