jMRUI Data Textfile

Filename: Export_to_jmrui.txt

PointsInDataset: 2048
DatasetsInFile: 1
SamplingInterval: 0.250000
ZeroOrderPhase: 0E0
BeginTime: 0E0
TransmitterFrequency: 1.2326E8
MagneticField: 2.8936E0
TypeOfNucleus:  
NameOfPatient:  
DateOfExperiment:  
Spectrometer:  
AdditionalInfo: 
SignalNames:  


Signal and FFT
sig(real)	sig(imag)	fft(real)	fft(imag)
Signal 1 out of 1 in file
3.2662E-06	-6.5812E-07	-2.9581E-06	1.5868E-06
4.5965E-06	-1.9355E-06	-2.1801E-06	1.5371E-06
2.8304E-06	-2.9711E-06	-9.4321E-07	6.0608E-07
1.3087E-06	-3.3176E-06	-2.4602E-07	1.4530E-06
-5.4236E-07	-2.7500E-06	-1.6486E-06	2.4911E-07
-1.5084E-06	-1.7526E-06	-1.9160E-06	8.3433E-07
-1.8778E-06	-4.4843E-07	-1.8637E-07	1.6109E-08
-1.2476E-06	4.7096E-07	-9.6489E-07	1.9755E-06
-4.1826E-07	8.0511E-07	-3.6756E-07	9.3719E-07
6.1465E-07	6.5978E-07	-4.5582E-07	2.8764E-07
1.1049E-06	1.9643E-07	8.3531E-07	3.6338E-07
1.2606E-06	-4.1704E-07	-1.1537E-06	1.2346E-06
8.7150E-07	-8.8104E-07	-1.4522E-06	-2.1572E-07
4.0303E-07	-1.0525E-06	7.1579E-07	1.8074E-06
-9.4427E-08	-9.2478E-07	2.6620E-07	3.2065E-07
-3.2580E-07	-6.2465E-07	-3.4888E-07	1.6825E-06
-4.6057E-07	-3.8807E-07	-6.6617E-07	1.0021E-06
-3.4142E-07	-1.9426E-07	1.3334E-06	2.8066E-06
-2.8344E-07	-6.7132E-08	5.9965E-08	5.3738E-08
-2.7343E-07	-3.7117E-08	-5.1203E-07	2.1465E-06
-3.3513E-07	2.8817E-08	-1.8400E-07	4.0451E-07
-3.5454E-07	1.2388E-07	1.8306E-06	8.8635E-07
-3.4474E-07	3.3403E-07	1.3026E-07	6.6559E-07
-2.1183E-07	4.4216E-07	-2.4347E-07	2.3187E-06
6.6313E-08	4.3773E-07	-1.1770E-07	1.5614E-06
2.6718E-07	3.0985E-07	-3.7979E-07	8.4615E-07
3.6766E-07	1.1147E-07	8.6028E-07	1.0998E-06
4.0386E-07	-1.5514E-07	-9.3661E-07	9.8306E-07
1.9113E-07	-2.6034E-07	-3.6212E-07	-5.4400E-07
-2.6554E-09	-1.4617E-07	1.1995E-06	1.3524E-06
-2.4219E-07	-6.1325E-09	-1.9230E-07	2.2796E-06
-2.9317E-07	2.7045E-07	-7.2345E-07	-2.5969E-07
-2.4328E-07	5.3005E-07	1.7345E-07	1.0001E-06
4.2405E-08	6.7059E-07	1.0742E-06	1.0162E-06
2.8780E-07	5.9614E-07	-8.8017E-07	2.1410E-06
4.8530E-07	4.5452E-07	-9.5308E-08	-5.6025E-07
5.0335E-07	2.2829E-07	1.8603E-07	6.3060E-07
5.2642E-07	1.3094E-07	8.5890E-07	7.9464E-07
4.3947E-07	-2.7267E-08	7.0002E-08	-9.6025E-08
3.6531E-07	-2.8280E-08	9.9973E-07	1.0614E-06
3.2398E-07	-2.0623E-08	6.9441E-07	6.0918E-07
3.4195E-07	-6.7488E-08	1.4366E-06	1.2344E-06
3.0003E-07	-1.4112E-07	5.3650E-07	6.4391E-07
2.6262E-07	-3.0435E-07	2.0804E-07	5.2584E-07
1.8071E-07	-3.2279E-07	1.1251E-06	9.4977E-07
8.4780E-09	-2.6772E-07	3.4253E-08	1.2183E-06
-8.0110E-08	-2.4646E-07	-4.4317E-09	1.4191E-06
-9.7147E-08	-3.3047E-08	-8.1762E-07	6.6320E-07
-1.3600E-07	8.5743E-08	4.7539E-08	1.3906E-06
-6.2599E-09	1.7098E-07	-1.3649E-06	1.8200E-06
6.7070E-08	1.6134E-07	5.8195E-07	9.5969E-07
1.6691E-07	7.7910E-08	-3.8966E-07	2.4061E-06
1.6205E-07	-8.0227E-08	-6.6066E-08	-8.7391E-07
6.7596E-08	-1.4172E-07	9.4092E-07	1.3730E-06
-8.9691E-08	-2.0041E-07	4.0191E-09	8.0172E-07
-2.1032E-07	-9.4957E-08	-1.3639E-06	1.7502E-06
-3.2188E-07	2.9254E-08	1.4178E-07	3.1137E-07
-1.9786E-07	2.0188E-07	6.5354E-07	1.7654E-06
-8.1287E-08	2.6711E-07	-2.7006E-07	1.5719E-06
1.0342E-07	2.6065E-07	8.3854E-07	-5.2122E-08
1.3606E-07	1.0984E-07	3.9874E-07	-1.4659E-07
1.6488E-07	-1.0840E-08	-4.2648E-08	1.1660E-06
7.8573E-08	-1.0902E-07	7.2883E-07	1.8466E-06
-5.4197E-08	-9.2480E-08	6.5733E-07	1.0631E-06
-1.8284E-07	-2.0937E-08	1.6076E-06	1.2341E-06
-1.7410E-07	1.4639E-07	2.6869E-07	8.7465E-08
-1.2684E-07	2.4223E-07	1.0950E-06	1.3185E-06
-4.8764E-08	2.2173E-07	-1.3049E-06	7.3541E-07
5.3343E-08	2.1410E-07	3.5995E-07	9.9803E-07
3.1199E-08	1.4136E-07	1.1199E-06	-7.7364E-07
3.0123E-08	3.0360E-08	-3.0109E-07	1.3772E-06
-4.1069E-08	2.4105E-08	3.8703E-07	3.8634E-07
-1.4662E-07	9.2025E-08	-8.2050E-08	1.4419E-06
-1.6518E-07	8.5014E-08	1.0428E-06	1.6940E-06
-1.2590E-07	2.2721E-07	-6.4989E-07	7.1202E-07
-3.4084E-08	3.0725E-07	8.4164E-08	9.4181E-07
3.7955E-08	2.3391E-07	5.1591E-07	1.6315E-06
1.4648E-07	1.8018E-07	2.2939E-07	5.7464E-07
1.2475E-07	1.0654E-07	2.6997E-07	2.1520E-06
7.3921E-08	4.9170E-08	-6.6214E-07	2.4442E-06
-3.8478E-08	2.5182E-08	1.4012E-06	1.8069E-07
-8.5659E-08	1.1569E-07	6.4387E-08	3.0199E-06
-1.1183E-07	1.7297E-07	-1.0003E-06	1.3357E-07
-3.3009E-08	2.3053E-07	1.8892E-07	1.8698E-06
2.4738E-08	2.0843E-07	8.6613E-07	1.3221E-06
1.9641E-07	1.8592E-07	-7.1249E-07	2.1135E-06
1.7782E-07	1.3899E-08	4.0969E-07	2.4551E-06
8.1787E-08	-4.1243E-08	2.1183E-06	1.9020E-06
3.4406E-08	-1.0452E-07	-4.2886E-07	1.4233E-06
-8.8722E-08	-1.2503E-07	1.2913E-06	6.6905E-07
-2.1332E-07	-7.8882E-09	1.4476E-06	1.6502E-06
-2.1057E-07	1.1315E-07	2.7880E-06	1.0220E-06
-9.7960E-08	2.2276E-07	1.4495E-06	1.8290E-06
2.9155E-09	3.0401E-07	4.8957E-07	-3.6583E-08
1.0078E-07	2.4580E-07	1.9244E-06	6.9782E-07
1.8375E-07	1.5684E-07	5.8498E-07	1.2504E-06
1.5476E-07	7.1102E-09	-5.6908E-07	8.8904E-07
7.4877E-08	-6.4822E-08	1.3993E-07	7.0610E-07
-1.9878E-08	-1.1759E-07	4.2618E-07	2.1202E-06
-9.5957E-08	-1.1322E-07	2.6043E-06	1.0956E-06
-1.7011E-07	-3.8808E-08	-5.5959E-07	3.1187E-06
-1.9119E-07	1.0949E-10	5.3023E-07	1.7439E-06
-2.0207E-07	2.8159E-08	1.1353E-06	1.2347E-06
-1.5902E-07	7.2872E-08	-2.9190E-08	1.1561E-07
-1.3766E-07	9.7238E-08	1.0473E-06	1.0307E-06
-1.9162E-07	1.5384E-07	8.3410E-07	3.0738E-07
-1.7625E-07	1.5086E-07	3.4314E-07	5.7883E-07
-1.2201E-07	1.4873E-07	-1.0674E-06	2.5164E-06
-1.2437E-07	1.7472E-07	-5.1997E-07	1.8701E-07
-4.2978E-08	2.5134E-07	2.5520E-06	1.6172E-07
1.3985E-08	2.3633E-07	-4.5641E-08	8.8650E-07
5.8619E-08	1.5824E-07	4.3413E-07	1.0590E-06
4.0298E-08	8.1530E-08	9.0210E-07	1.6651E-06
3.5729E-08	1.8593E-08	5.3963E-07	1.3508E-06
-7.6840E-08	1.3308E-08	-1.1609E-07	2.1381E-06
-1.8508E-07	4.3604E-08	1.0618E-07	1.9672E-06
-1.8753E-07	6.5599E-08	-6.1274E-08	6.7131E-07
-1.8674E-07	1.7514E-07	1.9805E-06	5.3776E-07
-1.8858E-07	2.3087E-07	1.3350E-06	7.0889E-09
-5.2016E-08	2.3663E-07	8.1491E-07	1.3548E-07
9.3036E-09	1.4872E-07	2.2292E-06	1.0695E-06
7.7090E-08	8.8390E-08	-7.9299E-07	6.5374E-07
2.9143E-08	6.2506E-08	-2.5611E-07	3.8922E-07
-1.6222E-08	1.1481E-08	8.2601E-07	-4.2420E-07
-1.4045E-07	5.1413E-08	-2.7345E-07	-9.3849E-07
-1.4613E-07	6.9356E-08	9.5795E-07	1.4183E-06
-1.4896E-07	1.3955E-07	-4.3061E-07	2.3956E-06
-9.0296E-08	1.9929E-07	8.0281E-07	1.9402E-06
-8.5777E-08	2.2514E-07	1.3896E-06	2.4537E-07
-4.3823E-08	1.8144E-07	-1.1956E-06	-5.3070E-08
-2.2667E-08	1.4499E-07	1.9002E-07	-1.2434E-07
6.9723E-09	1.2820E-07	1.1377E-06	-6.8663E-08
-6.2281E-08	8.4588E-08	1.7825E-07	1.3574E-06
-7.0256E-08	7.3401E-08	5.0828E-07	1.8407E-06
-6.1316E-08	1.0047E-07	1.8587E-07	1.0192E-06
-3.5020E-08	1.3248E-07	1.0209E-06	8.7815E-07
-9.0269E-09	1.0694E-07	-2.5107E-07	1.1249E-06
5.0885E-09	9.1139E-08	1.8929E-06	6.3657E-07
2.6751E-08	6.8919E-08	-1.3888E-07	5.6962E-07
-1.9352E-08	9.7955E-09	3.4690E-07	8.4510E-07
-5.8799E-08	-2.6568E-08	1.2004E-06	1.8172E-06
-1.3111E-07	2.9460E-08	1.0178E-06	2.9944E-07
-1.9917E-07	7.5660E-08	-2.5262E-07	2.2257E-06
-1.8941E-07	1.4420E-07	1.4055E-06	2.2667E-06
-1.9816E-07	1.9994E-07	4.4421E-07	1.8315E-06
-9.1338E-08	1.8406E-07	7.6861E-07	1.8281E-06
-9.0463E-08	1.7294E-07	-2.7957E-07	6.7420E-08
-1.2390E-08	1.4562E-07	1.6680E-06	1.9970E-06
-3.8725E-08	1.0754E-07	5.0512E-07	1.4265E-06
-2.5447E-08	5.8761E-08	8.4305E-07	1.1583E-06
-9.0898E-08	7.4833E-09	2.4796E-07	1.4001E-06
-1.2631E-07	7.2215E-08	1.6768E-06	-2.4459E-08
-1.3363E-07	8.7283E-08	-5.8150E-07	2.0264E-06
-1.3762E-07	1.2550E-07	1.7664E-07	1.3478E-06
-1.5048E-07	1.5898E-07	7.7741E-07	3.5380E-06
-1.1333E-07	1.7083E-07	1.2979E-06	1.2260E-06
-5.0480E-08	1.5119E-07	-4.7772E-07	9.9703E-07
-6.0151E-08	1.4736E-07	1.2506E-06	1.1589E-06
-5.8418E-08	1.4776E-07	1.2250E-06	6.9321E-07
-6.2702E-08	1.1254E-07	8.3197E-07	8.4130E-07
-8.4713E-08	9.1827E-08	-3.0085E-07	1.2826E-06
-3.8614E-08	6.1550E-08	3.9675E-07	2.4380E-06
-5.4004E-08	1.2098E-07	-1.1890E-06	1.9302E-06
-1.2607E-07	8.8663E-08	4.1456E-07	1.6171E-06
-1.3103E-07	1.1916E-07	7.9197E-07	-2.8846E-07
-1.2750E-07	1.4106E-07	-1.1183E-07	6.1268E-07
-1.4058E-07	1.5909E-07	9.0511E-07	7.3959E-07
-1.1308E-07	1.2668E-07	-1.4483E-07	8.6663E-07
-1.5930E-07	1.7229E-07	1.4696E-06	1.3548E-07
-7.0123E-08	1.9830E-07	-3.7893E-07	2.4160E-06
-3.6203E-08	1.3440E-07	-9.0787E-08	-4.2104E-07
9.4096E-10	1.8686E-07	4.9705E-08	1.0110E-06
4.4031E-09	1.5862E-07	1.6612E-06	2.1509E-06
-4.0196E-08	7.9584E-08	-1.1430E-06	6.4993E-07
-1.8882E-08	8.3615E-08	-2.8401E-08	1.7210E-07
-2.9154E-08	7.2152E-08	5.8098E-07	2.2151E-06
-6.6780E-08	6.6097E-08	1.6834E-06	-1.9878E-08
-5.4335E-08	1.0411E-07	9.5887E-07	8.7697E-07
-2.9510E-08	6.3610E-08	4.8117E-07	6.2256E-07
-3.2730E-08	1.0209E-07	3.0686E-07	9.1336E-07
-5.8296E-08	6.4031E-08	1.7748E-06	1.7079E-06
-5.3267E-08	7.5721E-08	2.2135E-06	2.4529E-06
-5.7601E-08	8.2374E-08	-1.9670E-06	1.8615E-06
-6.8612E-08	3.8254E-08	1.6397E-06	1.7896E-06
-5.5159E-08	7.7013E-08	-3.5208E-07	-5.2759E-07
-4.9491E-08	8.6989E-08	-8.3298E-07	2.0908E-06
-5.8509E-08	7.5820E-08	8.2459E-08	1.9519E-06
-6.5276E-08	9.6422E-08	1.0868E-06	-1.9302E-07
-9.6590E-08	8.1746E-08	9.7476E-07	1.0637E-06
-9.6637E-08	8.9224E-08	1.1906E-06	2.4038E-06
-1.1187E-07	8.8777E-08	1.7787E-06	2.2130E-08
-9.5251E-08	4.6051E-08	3.4685E-07	-7.8235E-09
-1.2139E-07	6.7335E-08	1.7297E-06	1.4973E-06
-1.4260E-07	1.1500E-07	1.3320E-06	4.2977E-07
-1.1863E-07	1.0103E-07	-6.7172E-07	1.7619E-06
-1.3603E-07	1.2021E-07	-1.5868E-06	2.5044E-06
-5.6419E-08	1.2573E-07	6.6016E-07	9.2745E-07
-9.1416E-08	1.5675E-07	1.1322E-06	5.9584E-07
-1.2289E-07	1.2410E-07	-1.4246E-06	1.6306E-06
-6.1235E-08	1.2805E-07	1.9685E-06	1.4395E-06
-9.9243E-08	1.1517E-07	5.3631E-07	1.1149E-06
-7.4760E-08	1.1070E-07	2.7397E-07	1.9272E-06
-1.1294E-07	1.1311E-07	1.8923E-06	2.4358E-07
-6.8210E-08	1.3711E-07	-1.4517E-07	1.1985E-06
-7.2545E-08	1.5802E-07	4.9803E-07	4.1271E-07
-9.6436E-08	1.0102E-07	2.2543E-06	1.4463E-06
