jMRUI Data Textfile

Filename: Export_to_jmrui.txt

PointsInDataset: 2048
DatasetsInFile: 1
SamplingInterval: 0.250000
ZeroOrderPhase: 0E0
BeginTime: 0E0
TransmitterFrequency: 1.2326E8
MagneticField: 2.8936E0
TypeOfNucleus:  
NameOfPatient:  
DateOfExperiment:  
Spectrometer:  
AdditionalInfo: 
SignalNames:  


Signal and FFT
sig(real)	sig(imag)	fft(real)	fft(imag)
Signal 1 out of 1 in file
3.7645E-06	1.0877E-06	-3.8085E-06	2.5291E-06
7.1558E-06	-5.0918E-07	-2.6844E-06	1.2256E-06
4.7464E-06	-2.8371E-06	-3.4575E-06	1.3928E-06
3.0004E-06	-3.9180E-06	-2.2228E-06	1.5896E-06
-8.0925E-08	-4.0409E-06	-2.9897E-06	4.7006E-07
-1.6717E-06	-2.9779E-06	-3.0587E-06	1.6340E-06
-2.9607E-06	-1.3543E-06	-2.8385E-06	1.1453E-06
-2.3506E-06	2.7532E-07	-2.7287E-06	1.9981E-06
-1.3564E-06	1.3053E-06	-2.1052E-06	1.3505E-06
3.0049E-07	1.4504E-06	-2.0573E-06	1.3762E-06
1.1961E-06	8.4667E-07	-2.6566E-06	3.3126E-07
1.7479E-06	7.6563E-08	-3.4042E-06	2.2372E-06
1.4320E-06	-7.8065E-07	-1.4537E-06	1.8042E-06
8.5679E-07	-1.1962E-06	-2.2609E-06	1.0109E-06
-9.8306E-08	-1.2769E-06	-2.4578E-06	1.2893E-06
-5.1710E-07	-1.0130E-06	-2.1769E-06	1.6188E-06
-8.7960E-07	-6.5838E-07	-2.5342E-06	6.2473E-07
-8.2345E-07	-2.4967E-07	-3.4837E-06	2.5031E-06
-7.9028E-07	-2.8244E-08	-1.2861E-06	2.2574E-06
-6.6515E-07	1.5701E-07	-2.2767E-06	1.7169E-06
-7.5461E-07	1.8209E-07	-9.8971E-07	1.9080E-06
-7.0846E-07	3.6650E-07	-2.1764E-06	2.5010E-07
-7.3930E-07	5.3142E-07	-3.1870E-06	2.0856E-06
-5.1676E-07	6.7105E-07	-1.4605E-06	2.3392E-06
-3.0770E-07	6.6208E-07	-2.0502E-06	1.0604E-06
3.5767E-08	5.2192E-07	-2.5563E-06	2.3898E-06
2.3895E-07	2.6952E-07	-1.3423E-06	2.1470E-06
2.6573E-07	-3.7691E-08	-1.5452E-06	1.6773E-06
5.9938E-09	-1.6179E-07	-1.9439E-06	1.2850E-06
-3.1161E-07	-1.2742E-07	-2.2306E-06	2.4338E-06
-7.0234E-07	9.2567E-08	-9.7784E-07	1.7262E-06
-7.9690E-07	3.7520E-07	-2.1530E-06	1.5322E-06
-7.5267E-07	7.4102E-07	-1.6007E-06	1.9556E-06
-4.5348E-07	9.7683E-07	-1.9374E-06	1.9338E-06
-1.6208E-07	1.0082E-06	-1.2816E-06	2.0316E-06
1.8464E-07	8.4926E-07	-1.6138E-06	1.6776E-06
3.1352E-07	6.3916E-07	-1.3943E-06	1.6815E-06
3.8216E-07	4.2828E-07	-1.8588E-06	1.5634E-06
2.9364E-07	3.2698E-07	-1.7520E-06	1.7549E-06
2.9734E-07	2.7014E-07	-2.0828E-06	2.0649E-06
2.4251E-07	2.5292E-07	-1.2887E-06	2.3416E-06
3.3250E-07	1.4216E-07	-1.3347E-06	1.7963E-06
2.7732E-07	-2.9510E-08	-1.2517E-06	1.8304E-06
2.5197E-07	-1.8655E-07	-1.3457E-06	1.3224E-06
8.4280E-08	-3.5142E-07	-2.2232E-06	1.4999E-06
-1.3938E-07	-3.7190E-07	-1.4708E-06	2.5628E-06
-4.3042E-07	-2.9744E-07	-1.1729E-06	9.4029E-07
-4.7150E-07	-1.0303E-08	-2.5740E-06	1.9590E-06
-5.0352E-07	2.4384E-07	-1.5581E-06	1.8853E-06
-3.0623E-07	4.4329E-07	-2.2218E-06	2.5727E-06
-4.4844E-08	4.2198E-07	-5.3537E-07	1.7456E-06
1.5729E-07	2.9580E-07	-2.6773E-06	1.4092E-06
1.8799E-07	-1.7514E-08	-1.3194E-06	2.1951E-06
2.7383E-08	-2.7784E-07	-3.0834E-06	1.3966E-06
-2.7121E-07	-3.5106E-07	-2.1195E-06	3.4750E-06
-5.2366E-07	-2.5646E-07	-2.0657E-06	2.5236E-06
-6.8655E-07	-1.5828E-08	-1.1246E-06	3.6797E-06
-6.3598E-07	2.3406E-07	-8.8516E-07	1.6236E-06
-4.9403E-07	4.3152E-07	-2.2665E-06	2.2682E-06
-2.2641E-07	4.8937E-07	-2.3886E-06	2.9127E-06
4.1153E-08	3.9904E-07	-1.5313E-06	4.0487E-06
7.8216E-08	1.9107E-07	-7.6400E-07	3.2632E-06
8.0609E-09	2.7441E-08	-3.7838E-07	3.3790E-06
-1.5276E-07	-5.3184E-08	-5.0938E-07	1.9675E-06
-3.1870E-07	-6.1344E-08	-1.6150E-06	3.2533E-06
-4.9744E-07	9.2668E-08	3.3262E-07	3.3748E-06
-5.0619E-07	2.5309E-07	-1.1901E-07	1.7657E-06
-3.6356E-07	3.1988E-07	-8.3036E-07	2.4192E-06
-2.8293E-07	3.2786E-07	1.0736E-08	2.0728E-06
-1.2834E-07	2.6016E-07	-1.1054E-06	1.3121E-06
-1.6455E-07	1.6899E-07	-1.4927E-06	2.2298E-06
-2.1733E-07	1.0061E-07	-1.7264E-06	2.6782E-06
-3.5234E-07	5.4221E-08	-5.0243E-07	3.9170E-06
-4.0316E-07	1.3582E-07	6.9598E-07	2.0143E-06
-4.2799E-07	2.9819E-07	-1.1391E-06	1.6714E-06
-2.5857E-07	4.0567E-07	-3.5885E-07	3.0059E-06
-1.7963E-07	3.9923E-07	3.2525E-07	1.0673E-06
1.0141E-08	3.8173E-07	-2.1717E-06	1.3790E-06
3.6851E-08	2.1688E-07	-1.0314E-06	2.8928E-06
1.7178E-08	4.3605E-08	-1.5250E-06	2.3370E-06
-1.3587E-07	1.5762E-08	-3.1141E-07	3.6706E-06
-1.9318E-07	4.1076E-08	-2.8138E-07	1.7955E-06
-3.5188E-07	1.6049E-07	-5.0864E-07	3.1981E-06
-3.0811E-07	2.9773E-07	2.5672E-07	1.6648E-06
-1.5950E-07	3.5940E-07	-4.3356E-07	2.5589E-06
-8.5336E-09	2.9299E-07	3.9981E-07	7.3998E-07
1.1410E-07	1.4711E-07	-2.1384E-06	1.7909E-06
1.2310E-07	-4.2011E-08	-1.6852E-07	2.2697E-06
-3.1676E-08	-1.6407E-07	-1.7691E-06	1.7786E-06
-1.7814E-07	-2.0554E-07	-3.7001E-07	3.1605E-06
-3.8500E-07	-1.3616E-07	-3.0266E-07	1.7520E-06
-4.2838E-07	8.4655E-08	-4.0436E-07	1.7392E-06
-3.7446E-07	2.2519E-07	-1.5519E-06	1.2424E-06
-2.2719E-07	4.1424E-07	-1.5655E-06	2.8355E-06
-8.5534E-08	4.0886E-07	-7.5777E-07	2.5078E-06
7.5599E-08	2.8013E-07	-8.4482E-07	2.3872E-06
1.4088E-07	1.1772E-07	-1.2123E-06	2.4852E-06
8.3818E-08	-5.4598E-08	-5.5001E-07	3.2377E-06
-8.2305E-08	-1.8890E-07	-1.4344E-07	2.4059E-06
-1.7916E-07	-2.4404E-07	-6.7280E-08	2.6591E-06
-3.0894E-07	-1.7758E-07	2.9854E-07	1.3347E-06
-3.4947E-07	-1.0994E-07	-1.3942E-06	1.3771E-06
-3.9114E-07	8.8724E-09	-1.1324E-06	2.3180E-06
-3.3603E-07	-7.4844E-09	-1.2520E-06	2.3432E-06
-3.5707E-07	1.1065E-07	-8.3080E-07	2.9499E-06
-2.9865E-07	7.7147E-08	-5.2123E-07	2.5846E-06
-3.1517E-07	1.3470E-07	-2.6431E-07	2.8433E-06
-3.2922E-07	1.4612E-07	1.3174E-07	1.9298E-06
-3.1812E-07	1.8073E-07	-7.4862E-07	1.9107E-06
-1.5903E-07	1.7828E-07	-5.5140E-07	2.1088E-06
-1.1521E-07	2.0142E-07	-6.6369E-07	2.2401E-06
-6.9839E-08	1.7941E-07	-3.5883E-07	1.6764E-06
-5.5960E-08	6.8318E-08	-1.5603E-06	2.0545E-06
-1.1150E-07	-2.2245E-08	-4.4304E-07	2.4824E-06
-2.2028E-07	-9.2186E-08	-1.5976E-06	1.9452E-06
-2.9650E-07	-3.0458E-08	-6.8013E-07	3.5032E-06
-3.6870E-07	7.9648E-08	-1.0998E-07	2.2567E-06
-3.7625E-07	1.5514E-07	-1.5265E-07	1.9320E-06
-3.0306E-07	2.6088E-07	-1.9438E-06	1.3474E-06
-1.4781E-07	3.0572E-07	-1.3204E-06	4.1934E-06
-1.3718E-08	2.2865E-07	3.0434E-07	2.4074E-06
6.0430E-08	6.3205E-08	-5.8645E-07	2.5478E-06
2.2717E-08	-3.0719E-08	-8.4079E-07	1.8902E-06
-2.2123E-09	-7.9330E-08	-1.0600E-06	3.7795E-06
-1.8658E-07	-1.0640E-07	4.4985E-07	2.3076E-06
-2.6294E-07	9.4825E-09	-7.4309E-07	3.3888E-06
-2.4283E-07	1.1152E-07	1.7237E-06	1.9105E-06
-3.0546E-07	1.8042E-07	-1.5382E-06	9.8115E-07
-2.3175E-07	2.2105E-07	-4.3571E-07	3.2454E-06
-1.4328E-07	1.7555E-07	1.5769E-07	2.0615E-06
-4.7267E-08	1.4802E-07	-1.4929E-07	1.6394E-06
-1.3753E-08	3.4721E-08	-7.4221E-07	1.9567E-06
-7.7969E-08	3.6608E-08	-1.2607E-07	1.3781E-06
-1.1005E-07	4.2297E-08	-1.9076E-06	1.4302E-06
-1.6368E-07	2.6490E-08	-1.2455E-06	2.3826E-06
-1.4091E-07	7.3584E-08	-2.0511E-06	2.7253E-06
-1.1480E-07	8.8596E-08	-2.5573E-07	3.5154E-06
-9.7047E-09	7.0727E-08	-1.0984E-06	2.2176E-06
2.8340E-09	6.5451E-08	-2.7120E-07	3.6047E-06
-2.4401E-08	1.9383E-09	-3.0839E-07	1.6504E-06
-7.7814E-08	-5.2499E-08	-1.4954E-06	3.1136E-06
-1.9010E-07	-1.0717E-07	4.3499E-08	3.3337E-06
-2.8275E-07	-7.2988E-08	1.9040E-07	2.1465E-06
-2.7888E-07	-3.1318E-09	-1.0526E-06	2.0836E-06
-2.7547E-07	6.3860E-08	-4.0019E-07	3.0455E-06
-2.1621E-07	1.6507E-07	-5.6279E-07	2.0208E-06
-8.8081E-08	1.3591E-07	-8.6864E-07	3.1357E-06
-4.1271E-08	1.5571E-07	5.2461E-08	2.4131E-06
-2.5196E-08	6.0435E-08	-1.0161E-06	2.4555E-06
-4.8056E-08	-6.0532E-08	2.9542E-08	3.1317E-06
-1.1775E-07	-3.0055E-08	-2.0936E-07	1.2983E-06
-1.4009E-07	-7.8121E-08	-2.1390E-06	2.7591E-06
-1.9372E-07	-2.9842E-08	-1.1742E-07	3.5520E-06
-2.0426E-07	7.7298E-08	-8.5342E-07	2.6099E-06
-1.8522E-07	1.2824E-07	-2.3626E-08	3.5488E-06
-1.0345E-07	1.7954E-07	-1.5918E-07	2.3842E-06
-1.2295E-07	1.2251E-07	-1.7357E-07	2.8893E-06
-6.4076E-08	1.5147E-07	-5.8451E-07	2.5848E-06
-2.8248E-08	6.4209E-08	4.0370E-07	3.1919E-06
-5.2007E-08	4.3330E-08	-5.3539E-07	1.6826E-06
-8.5234E-08	5.7419E-08	-1.9450E-07	3.6245E-06
-8.3709E-08	-9.4963E-09	9.6974E-08	1.3334E-06
-7.9627E-08	-1.7380E-08	-1.4725E-06	3.5175E-06
-1.0736E-07	2.1643E-08	8.3968E-07	2.9087E-06
-1.8551E-07	2.0754E-08	-1.8982E-07	2.3895E-06
-1.5076E-07	2.8962E-08	-1.0568E-07	2.0752E-06
-1.7707E-07	2.3611E-08	-6.2195E-07	3.2136E-06
-1.2417E-07	6.6420E-08	9.8993E-07	2.0590E-06
-1.0318E-07	9.4251E-08	-1.1366E-06	1.9077E-06
-6.4793E-08	1.5472E-07	-3.0577E-09	2.9746E-06
-6.0830E-08	1.5070E-07	1.2537E-07	2.3796E-06
-8.1327E-09	9.6397E-08	4.1420E-07	1.2019E-06
-4.3259E-09	8.7165E-08	-2.1886E-06	1.4880E-06
1.6833E-08	5.3230E-08	-8.1982E-07	3.4424E-06
-2.2204E-08	3.9541E-08	-1.0892E-06	2.3827E-06
-9.9755E-09	-3.0416E-08	-7.6180E-07	4.0866E-06
-9.4010E-08	2.3095E-08	7.9479E-07	2.9968E-06
-4.7501E-08	-1.1873E-08	-1.3508E-07	2.2047E-06
-1.4420E-08	1.3163E-08	-8.1438E-08	2.9885E-06
-2.6938E-08	2.6447E-08	5.9687E-07	1.9673E-06
1.9550E-09	-2.4846E-08	-7.7439E-07	2.0762E-06
2.5438E-09	4.2432E-08	4.0652E-07	2.3874E-06
-6.3969E-08	1.5559E-08	-7.8833E-07	1.0424E-06
-6.1586E-08	4.8831E-09	-1.4416E-06	2.4541E-06
-8.0041E-08	-4.4283E-09	-9.0783E-07	2.7007E-06
-4.5490E-08	2.9664E-08	-6.7980E-07	2.3640E-06
-1.0083E-07	5.6543E-08	-1.7440E-06	2.7146E-06
-6.3213E-08	3.3744E-08	-5.0992E-07	3.6529E-06
-8.8050E-08	6.1131E-08	-1.1560E-06	2.8140E-06
-8.7062E-08	2.6485E-08	-1.9427E-07	4.5230E-06
-5.4351E-08	3.4980E-08	4.8257E-07	2.5450E-06
-1.2768E-07	1.4374E-08	-3.1010E-07	3.6319E-06
-7.8253E-08	2.7669E-09	1.0313E-06	2.6238E-06
-9.6372E-08	3.0532E-09	-1.4309E-07	2.4475E-06
-7.4800E-08	4.7844E-08	4.5265E-07	2.4350E-06
-6.6236E-08	7.9680E-08	-1.6653E-07	2.1299E-06
-8.4087E-08	9.0810E-08	-3.9598E-08	2.2811E-06
-3.3109E-08	6.6729E-08	-2.0385E-07	2.1972E-06
-4.4739E-08	7.7294E-08	-7.3837E-08	1.9238E-06
-3.7300E-08	7.3266E-08	-7.6692E-07	1.5371E-06
-2.9982E-08	4.2023E-08	-1.6669E-06	2.1044E-06
-3.9367E-09	2.1125E-08	-1.3205E-06	3.3927E-06
-1.1819E-07	2.7349E-08	-4.6333E-07	3.0479E-06
-5.2674E-08	4.1494E-08	-7.4759E-07	3.1349E-06
