jMRUI Data Textfile

Filename: Export_to_jmrui.txt

PointsInDataset: 2048
DatasetsInFile: 1
SamplingInterval: 0.250000
ZeroOrderPhase: 0E0
BeginTime: 0E0
TransmitterFrequency: 1.2326E8
MagneticField: 2.8936E0
TypeOfNucleus:  
NameOfPatient:  
DateOfExperiment:  
Spectrometer:  
AdditionalInfo: 
SignalNames:  


Signal and FFT
sig(real)	sig(imag)	fft(real)	fft(imag)
Signal 1 out of 1 in file
1.7608E-06	-3.9233E-07	-6.9534E-07	9.7351E-07
2.3686E-06	-1.1292E-06	-7.6375E-07	3.1334E-07
1.4078E-06	-1.6896E-06	-1.9290E-06	1.0161E-06
6.3973E-07	-1.7403E-06	3.6131E-07	1.9502E-07
-3.3687E-07	-1.4478E-06	-1.3723E-06	6.5199E-07
-7.5401E-07	-8.3289E-07	4.2675E-07	2.8429E-07
-9.4120E-07	-2.3388E-07	-7.5404E-08	1.2279E-06
-5.6024E-07	2.0583E-07	-1.3279E-06	4.4487E-08
-1.0663E-07	3.4002E-07	-6.9384E-07	4.1890E-07
3.0146E-07	2.1943E-07	1.2241E-06	6.5463E-07
5.0021E-07	-1.0354E-07	-7.6400E-08	2.2757E-06
5.0715E-07	-4.3483E-07	-5.9292E-07	-1.8359E-08
2.5273E-07	-5.3850E-07	-6.0945E-07	4.6411E-08
5.8356E-09	-5.5119E-07	-3.9052E-08	2.5649E-09
-2.3396E-07	-3.8914E-07	-6.8712E-07	4.9116E-07
-2.2659E-07	-1.9342E-07	-5.0460E-08	-6.3006E-07
-2.0673E-07	-4.6957E-08	1.5988E-06	-4.1522E-07
-6.9937E-08	2.1015E-09	-8.7489E-08	-3.3092E-07
-8.8307E-08	-6.0073E-08	-1.6864E-06	2.0873E-06
-7.0789E-08	-9.3603E-08	5.2567E-07	-2.2159E-07
-1.9868E-07	-9.5406E-08	-1.1410E-06	1.5389E-06
-2.8114E-07	-5.1502E-08	1.1402E-06	-8.4447E-07
-3.0519E-07	1.1763E-07	-3.8483E-07	2.7941E-07
-2.4568E-07	2.2004E-07	1.0255E-06	-1.4834E-06
-1.0442E-07	3.1201E-07	5.1211E-07	6.6124E-07
8.5806E-08	2.3903E-07	6.7329E-08	-7.8493E-07
1.7364E-07	1.1832E-07	1.1410E-06	-2.0463E-06
1.9571E-07	-1.5011E-08	-5.7537E-07	2.3793E-06
1.3824E-07	-1.2019E-07	-4.1895E-07	8.8000E-07
-2.0061E-08	-8.7752E-08	-1.1481E-07	-1.6359E-06
-1.3416E-07	-6.1844E-09	-1.3375E-06	8.9629E-07
-1.5759E-07	2.1624E-07	-3.0851E-07	1.9715E-06
-1.3803E-07	3.6049E-07	-2.3809E-07	9.3891E-07
1.8794E-08	3.8326E-07	1.9137E-06	7.6132E-07
1.7227E-07	3.0805E-07	-1.3195E-06	5.2352E-07
3.2646E-07	2.2762E-07	1.9730E-08	1.9433E-07
3.8425E-07	8.5869E-08	6.6313E-08	2.8024E-06
3.2289E-07	-1.5601E-08	1.4522E-08	5.7469E-07
2.1647E-07	-1.7290E-08	1.5527E-06	1.1901E-06
2.3826E-07	-4.6939E-08	-2.7073E-07	4.4983E-07
1.2353E-07	1.7194E-09	-5.6825E-07	6.7611E-07
1.5611E-07	-4.9267E-09	-3.9462E-07	2.6014E-06
1.7974E-07	1.4973E-08	1.9662E-07	-8.8802E-07
2.0430E-07	-8.1752E-08	-5.8602E-07	4.1242E-07
1.3125E-07	-1.3865E-07	1.0382E-06	-2.4057E-06
6.8175E-08	-1.7879E-07	9.5520E-07	2.1916E-07
-3.4746E-08	-1.7324E-07	-7.2285E-07	-8.5033E-07
-2.3794E-08	-1.1997E-07	2.6335E-07	4.4994E-07
-3.8417E-08	-3.1963E-08	-1.1768E-06	1.3635E-06
-4.2537E-08	4.7666E-09	-3.3613E-07	7.7953E-07
4.4904E-08	4.9195E-08	2.0162E-06	-7.7057E-07
6.1493E-08	-6.4492E-09	6.1588E-07	-6.8590E-07
5.1684E-08	1.7626E-08	2.2838E-07	8.3241E-07
-5.9647E-09	-7.5270E-08	-2.6211E-07	2.5587E-06
-4.1640E-08	-9.6131E-08	1.2491E-06	1.3485E-06
-1.0478E-07	-3.2714E-08	9.5254E-08	-1.4165E-06
-8.1287E-08	3.0535E-08	-1.3318E-06	5.9193E-07
-8.5991E-08	1.3041E-07	-6.8917E-07	2.4126E-07
-4.4218E-08	1.1908E-07	-1.6609E-07	1.4273E-06
9.4236E-08	2.1095E-08	-1.3370E-06	6.4991E-07
6.8943E-08	2.2324E-08	7.5631E-07	7.2933E-07
5.1340E-08	-8.2706E-08	7.3398E-08	-3.5770E-07
1.3470E-08	-8.4048E-08	7.5980E-07	8.1199E-07
-8.5622E-08	-3.4756E-08	-1.4971E-07	4.0054E-07
-1.8098E-07	3.6950E-08	2.1260E-07	1.2830E-06
-1.5020E-07	9.5344E-08	4.6139E-07	4.0199E-07
-1.1905E-07	1.8858E-07	-2.2446E-06	1.2682E-06
-7.4645E-08	2.3605E-07	-4.6033E-08	-7.0102E-07
3.7707E-08	1.8147E-07	-7.6901E-07	7.4230E-07
9.0174E-08	1.2389E-07	1.2166E-06	9.1365E-07
1.3775E-08	8.9710E-08	7.4149E-07	1.7574E-07
2.2791E-08	2.5261E-08	-2.8167E-08	-1.2933E-06
-3.5990E-08	7.5315E-08	1.3886E-06	1.3311E-06
-6.3099E-08	1.3352E-07	-5.7070E-07	-2.8068E-08
-7.8519E-08	1.2845E-07	1.2691E-06	-6.0023E-07
3.0638E-08	1.4550E-07	-1.1028E-06	-2.5159E-07
6.5034E-08	1.5040E-07	1.3581E-06	1.4930E-06
8.1759E-08	1.2307E-07	-6.8828E-07	-7.0646E-08
8.6760E-08	6.7477E-08	1.0224E-06	4.9925E-07
-9.7698E-10	3.4541E-08	-3.5050E-07	-4.1383E-07
-7.5915E-08	7.1907E-08	-1.7193E-06	-5.5257E-07
-3.8129E-08	1.2663E-07	-3.6316E-07	1.3128E-06
-9.5403E-09	1.6362E-07	5.8930E-07	-1.2381E-06
3.0955E-08	2.1459E-07	1.0060E-06	2.4987E-07
1.4439E-07	1.4652E-07	4.6773E-08	1.2412E-08
1.5180E-07	8.1119E-08	-1.0518E-06	1.7984E-07
1.4642E-07	2.2814E-08	1.0437E-07	-2.2345E-07
7.1405E-08	-7.7455E-08	3.1256E-07	1.0589E-06
6.5159E-08	-8.7404E-08	4.1663E-07	6.0200E-07
-8.5476E-08	-5.0221E-08	-2.0944E-07	-3.9643E-07
-1.0144E-07	7.1229E-09	1.3770E-06	-5.9500E-07
-6.9643E-08	1.3822E-07	1.5566E-06	-6.8753E-07
-1.2569E-08	1.2964E-07	2.9454E-07	-1.4898E-07
2.5180E-08	1.7548E-07	4.2331E-07	-5.0449E-07
1.1755E-07	8.4722E-08	-1.1209E-06	1.4253E-06
1.5144E-07	8.1974E-08	-1.6411E-06	1.3629E-06
1.0343E-07	-2.7129E-08	-5.3552E-07	2.9748E-07
4.7443E-08	-8.2147E-08	-1.0556E-06	1.2305E-06
-3.9898E-08	-8.6557E-08	2.1760E-06	-1.1437E-07
-9.4241E-08	4.4588E-10	-9.3744E-07	1.2829E-06
-1.0828E-07	-5.1098E-08	1.1961E-06	5.4179E-07
-1.0611E-07	-3.8491E-09	-2.9739E-07	6.2817E-07
-6.2123E-08	9.0324E-08	7.0843E-07	2.2910E-07
-3.5013E-08	6.7085E-08	8.8677E-07	1.1928E-07
-9.5109E-08	9.6497E-08	9.8327E-07	6.9381E-07
-7.3977E-08	5.5700E-08	1.3636E-06	2.2151E-06
-7.2242E-08	1.0223E-07	-7.8405E-07	-6.2483E-07
-8.2163E-08	1.0445E-07	9.3130E-08	-4.8380E-07
-4.5883E-08	1.3607E-07	-1.0296E-06	-2.5628E-07
-3.6552E-08	1.2878E-07	-5.5122E-07	1.5077E-06
-5.3697E-10	8.8182E-08	-1.3022E-07	1.1795E-06
6.7310E-08	1.1688E-07	3.4134E-07	3.3670E-07
8.3802E-08	4.2936E-08	-6.4174E-07	5.4887E-07
-1.1051E-08	-1.4090E-08	8.5151E-07	2.1353E-06
-4.4538E-08	9.9041E-10	6.3067E-07	5.0038E-07
-6.5702E-08	7.9755E-08	4.3824E-08	8.1884E-08
-1.0789E-07	1.2306E-07	-2.4939E-06	1.8337E-06
-9.5489E-08	1.2871E-07	1.6227E-06	-6.4371E-07
-1.8837E-08	1.8523E-07	-1.0415E-07	6.5533E-07
1.1396E-09	1.7511E-07	1.4427E-06	1.8817E-06
6.4142E-08	1.2576E-07	-4.8442E-07	2.0162E-07
5.6417E-08	9.4385E-08	3.8079E-08	1.6731E-06
5.9976E-08	5.5636E-08	9.6639E-07	-2.7556E-07
2.1411E-08	3.6975E-08	4.1408E-07	-8.0369E-07
-1.6272E-08	2.1260E-08	9.7289E-08	-3.8848E-07
3.9980E-09	7.2979E-08	1.6518E-07	-1.2742E-06
-6.4854E-08	8.3175E-08	-5.8125E-07	-4.0360E-08
1.2123E-09	1.0847E-07	1.7610E-06	4.6809E-07
-2.3515E-08	1.0800E-07	1.3577E-06	8.4991E-07
2.6066E-08	1.2614E-07	-1.5684E-07	1.3449E-06
3.4046E-09	1.1346E-07	8.8417E-07	3.5917E-07
7.0407E-08	1.3638E-07	-9.1085E-07	-1.5572E-06
-2.0470E-10	7.1500E-08	-8.1147E-08	1.1856E-06
1.4921E-08	8.0155E-08	-1.3511E-06	-6.2143E-07
9.0859E-09	8.6547E-08	-4.2507E-07	1.4563E-06
6.7425E-08	1.0866E-07	1.3224E-06	2.1844E-06
5.5628E-08	5.8270E-08	5.6956E-07	-1.7698E-10
1.6301E-08	8.9823E-09	-3.1379E-07	2.0926E-06
1.2497E-08	1.4254E-08	-4.0496E-07	6.4839E-07
-7.3331E-09	1.0239E-08	-5.8493E-07	7.4317E-07
-5.9239E-09	5.5180E-08	5.6732E-08	5.6619E-07
-3.9401E-08	5.7460E-08	8.4975E-07	-6.8768E-07
-7.6674E-08	5.0871E-08	-1.2756E-06	1.7654E-07
-7.5829E-08	7.7471E-08	1.4777E-07	8.5090E-07
-6.8553E-08	1.0538E-07	1.4618E-07	1.2533E-06
-1.5202E-08	1.4326E-07	8.0642E-08	6.9407E-08
2.8977E-08	8.9160E-08	-2.4574E-07	-3.9481E-07
1.1756E-08	7.9797E-08	8.7654E-07	1.6059E-06
2.7254E-08	7.9732E-08	-6.0660E-07	3.1803E-06
-5.2669E-09	6.1017E-08	-1.6916E-08	1.3443E-07
-5.4761E-08	3.5090E-08	8.3628E-07	7.2379E-07
-2.5148E-08	7.5300E-08	-1.3175E-06	-5.0301E-08
-3.6992E-08	8.8178E-08	7.6525E-07	1.1131E-07
-3.0618E-08	1.0659E-07	-1.7053E-06	1.1470E-06
-4.0357E-08	9.4557E-08	1.2075E-07	4.7192E-07
-2.6259E-08	1.2608E-07	-1.1943E-07	1.1852E-06
2.9385E-08	1.2684E-07	1.0365E-06	2.7602E-07
2.1735E-08	1.5034E-07	-2.1942E-06	3.4322E-07
-1.1739E-09	8.8517E-08	7.4940E-07	-3.7325E-07
-2.0464E-08	9.1898E-08	1.4470E-06	1.9791E-07
1.3932E-09	8.1315E-08	1.5967E-07	1.5150E-06
-1.2711E-08	1.0372E-07	-1.4217E-07	2.2415E-06
2.0879E-08	9.6125E-08	1.1801E-07	3.9329E-07
-1.9455E-09	4.3874E-08	1.0435E-06	2.0653E-06
-3.9115E-08	6.4914E-08	1.9320E-06	7.8282E-07
-2.7803E-08	7.9653E-08	-4.5725E-07	2.2055E-07
-1.2443E-08	1.0553E-07	6.7705E-08	8.5819E-07
-2.8419E-08	1.2478E-07	3.2264E-07	2.7502E-07
-2.4919E-08	1.3753E-07	1.0300E-06	5.0988E-07
1.0176E-08	9.7899E-08	6.6245E-08	-3.2787E-08
3.4593E-08	1.0037E-07	1.1674E-06	4.3555E-08
4.7050E-08	1.2888E-07	3.7346E-07	9.9499E-07
2.5964E-08	6.4458E-08	1.1182E-06	5.1811E-07
6.0637E-08	1.0485E-07	-1.5353E-08	7.9852E-07
2.5546E-08	7.9708E-08	-1.4535E-06	1.0508E-06
2.2802E-08	9.1607E-08	2.0849E-06	1.3984E-06
-7.6351E-09	5.8447E-08	9.8528E-07	2.2003E-06
6.0825E-09	8.1887E-09	-3.9638E-08	7.9156E-07
6.9070E-09	4.0471E-08	1.5730E-06	7.5950E-07
-1.0012E-08	6.0768E-08	9.1955E-07	1.5298E-06
-1.3740E-08	6.5251E-08	4.1623E-07	4.2861E-07
1.2522E-08	2.4690E-08	5.7507E-07	2.1719E-07
1.7151E-08	4.4328E-08	4.8279E-08	2.1244E-06
2.5142E-08	5.7163E-08	1.2515E-06	-2.9011E-07
-1.4233E-08	6.2047E-08	-2.3982E-07	-6.7841E-08
-2.4874E-08	4.3977E-08	2.2103E-06	1.6870E-06
-2.7000E-08	8.2882E-08	7.7085E-07	1.0779E-06
-5.5016E-08	8.2634E-08	1.8845E-06	1.3180E-06
-2.8572E-08	1.1769E-07	2.7598E-07	1.6812E-06
-5.1666E-08	6.0911E-08	-1.7083E-09	-6.5690E-07
-6.1838E-08	1.3032E-07	-8.0545E-07	1.0954E-06
-3.9307E-08	1.1287E-07	3.2909E-07	1.3247E-06
-1.6923E-08	9.9617E-08	-3.4339E-07	2.1999E-06
-5.0717E-08	1.3674E-07	1.5446E-06	2.8669E-07
-7.8274E-10	1.2517E-07	-2.3763E-07	-8.4123E-08
-3.9211E-08	1.1667E-07	-1.9684E-07	8.2777E-07
-7.3603E-09	6.2273E-08	-6.5117E-07	1.4364E-06
-7.8720E-09	7.8554E-08	1.5796E-06	7.2455E-07
4.2710E-09	7.7562E-08	8.6769E-07	7.8202E-07
7.2533E-09	5.8612E-08	3.1070E-07	1.2557E-06
2.7418E-09	6.7419E-08	4.7121E-07	8.0199E-08
1.9136E-08	9.4942E-08	1.2325E-06	4.1163E-07
-2.2327E-08	6.7195E-08	-1.1095E-07	1.5491E-06
8.1746E-09	8.3073E-08	-4.9499E-07	-2.7317E-07
2.5124E-09	1.1977E-07	-1.7513E-06	2.7771E-06
-3.3829E-08	9.0112E-08	9.6467E-07	1.8484E-06
