jMRUI Data Textfile

Filename: Export_to_jmrui.txt

PointsInDataset: 2048
DatasetsInFile: 1
SamplingInterval: 0.250000
ZeroOrderPhase: 0E0
BeginTime: 0E0
TransmitterFrequency: 1.2326E8
MagneticField: 2.8936E0
TypeOfNucleus:  
NameOfPatient:  
DateOfExperiment:  
Spectrometer:  
AdditionalInfo: 
SignalNames:  


Signal and FFT
sig(real)	sig(imag)	fft(real)	fft(imag)
Signal 1 out of 1 in file
2.4015E-06	-5.6538E-07	1.3057E-06	3.1645E-07
3.2906E-06	-1.5211E-06	-1.5116E-06	6.1412E-07
1.9947E-06	-2.2604E-06	-1.3240E-06	1.6013E-06
8.6350E-07	-2.4532E-06	-8.4675E-07	-1.5133E-07
-5.0671E-07	-2.0425E-06	-1.7185E-06	1.1661E-06
-1.1189E-06	-1.2291E-06	-5.3800E-07	-4.7366E-07
-1.3605E-06	-3.4286E-07	5.0803E-07	6.6843E-07
-8.4519E-07	3.3317E-07	3.2021E-08	-1.9816E-08
-2.8200E-07	5.2882E-07	-5.3395E-07	1.5194E-06
4.3262E-07	4.0297E-07	-1.0612E-06	2.0083E-06
7.6557E-07	4.9207E-08	3.5784E-07	-8.6119E-07
8.5600E-07	-3.8095E-07	-1.3907E-06	-3.6433E-07
5.5712E-07	-6.9384E-07	9.3512E-07	-3.6699E-07
1.8380E-07	-7.9125E-07	5.0785E-07	1.7976E-06
-1.7755E-07	-5.9793E-07	-1.4834E-06	-1.0323E-06
-3.3704E-07	-4.0335E-07	1.6017E-07	-9.8051E-07
-3.4355E-07	-1.6669E-07	8.6316E-07	5.5123E-07
-1.9532E-07	-1.0775E-07	6.5172E-07	1.8280E-06
-2.0652E-07	-7.3588E-08	-2.1668E-08	2.6603E-06
-1.2997E-07	-9.5071E-08	-1.4023E-07	-6.0530E-07
-2.6033E-07	-3.1063E-09	-8.9487E-08	3.1379E-07
-2.7643E-07	8.2371E-08	4.4649E-07	-8.4073E-08
-3.6546E-07	1.7532E-07	-8.8090E-08	1.7950E-06
-2.1040E-07	3.6404E-07	5.5333E-07	1.6899E-06
-2.0777E-08	3.2346E-07	-7.6979E-07	1.0968E-06
1.6467E-07	2.9418E-07	-3.8048E-07	-4.3493E-07
2.8659E-07	1.4577E-07	-2.6600E-07	8.1264E-07
3.3046E-07	-5.7690E-08	1.4947E-06	7.3392E-07
1.4750E-07	-2.1024E-07	-4.8964E-07	1.4340E-06
-2.3029E-08	-1.2749E-07	-3.6336E-07	-8.0809E-07
-1.9705E-07	-1.1659E-08	1.6793E-06	-5.8585E-07
-1.9096E-07	1.7977E-07	1.4170E-06	7.1222E-07
-1.7841E-07	3.9923E-07	8.3861E-07	3.2458E-07
7.8458E-09	4.6982E-07	5.6244E-07	-1.8491E-07
1.6851E-07	4.3665E-07	3.0652E-07	1.4767E-07
3.6946E-07	3.5548E-07	4.0852E-08	1.2148E-06
4.1374E-07	1.8309E-07	-5.4788E-08	-6.0771E-07
4.1951E-07	6.4426E-08	2.7837E-07	2.1616E-07
2.9475E-07	-2.0968E-08	1.6742E-06	8.1881E-07
3.0368E-07	-3.1018E-08	1.5381E-06	-1.0325E-06
2.3077E-07	8.7146E-09	5.7290E-07	8.2300E-07
1.8613E-07	-1.2916E-08	1.4294E-06	-4.4181E-08
2.2492E-07	-1.0736E-07	2.6215E-07	9.4145E-08
1.9488E-07	-1.5479E-07	-4.3987E-07	1.7355E-06
1.4745E-07	-2.2536E-07	-1.8331E-07	3.7352E-07
8.7194E-08	-2.1897E-07	9.0484E-07	-1.0252E-06
-6.3685E-08	-1.7485E-07	3.0014E-07	8.4624E-07
-6.5093E-08	-9.9608E-08	8.1006E-07	1.1868E-06
-7.8634E-08	-2.0950E-08	6.8366E-07	-4.2435E-07
-9.4701E-09	6.0643E-08	9.2044E-07	4.2565E-07
3.8642E-08	6.5641E-08	-8.8005E-08	1.7036E-06
1.6383E-07	3.2189E-08	3.4492E-07	9.6918E-07
6.6097E-08	-2.9800E-08	-5.6339E-07	-5.0658E-07
4.2750E-08	-1.1094E-07	-1.7553E-07	-7.5590E-07
-8.3089E-08	-8.7192E-08	5.9319E-07	2.7094E-07
-2.0032E-07	-5.0661E-08	8.0828E-07	-9.7781E-07
-1.7921E-07	6.0507E-08	1.6800E-06	9.7221E-07
-1.2551E-07	1.7221E-07	-2.8215E-08	1.4013E-06
-7.1293E-09	1.1640E-07	1.9231E-07	-9.5803E-07
7.7826E-08	1.5664E-07	1.5180E-06	1.8542E-07
8.7584E-08	2.4886E-08	1.4853E-06	-3.6043E-07
1.1196E-07	-5.1933E-08	9.1936E-07	1.4301E-06
-4.2435E-08	-6.4053E-08	2.0171E-06	6.2706E-07
-1.0759E-07	-9.5970E-08	9.0414E-07	5.2903E-07
-1.4565E-07	1.0926E-08	1.7644E-07	-9.2162E-07
-1.8877E-07	1.0626E-07	1.9358E-07	-1.0829E-07
-8.1592E-08	2.0401E-07	1.0746E-06	2.9792E-07
-6.7248E-09	2.3947E-07	-1.9526E-07	1.3163E-07
4.7059E-08	1.9004E-07	-4.0708E-07	1.3992E-06
4.5376E-08	1.0791E-07	1.7034E-06	2.5267E-07
2.9101E-08	4.1714E-08	2.0427E-06	3.5776E-07
-4.4340E-08	1.7549E-08	8.3910E-07	-1.2829E-06
-9.9083E-08	4.4301E-08	8.1517E-07	4.5864E-07
-6.9219E-08	1.2039E-07	1.1028E-07	-7.4234E-07
-8.2057E-08	2.4198E-07	1.3833E-06	1.5378E-08
2.9321E-08	2.5879E-07	7.0455E-07	-4.6262E-07
7.6944E-08	1.9553E-07	-1.3025E-07	8.9204E-07
2.0187E-07	1.3027E-07	-2.8355E-07	-3.9291E-07
1.2107E-07	8.6697E-08	2.8495E-07	9.8556E-07
4.8804E-08	6.1096E-08	5.5858E-07	1.7404E-06
-3.0421E-08	7.7143E-08	1.1785E-07	4.9893E-08
-6.7671E-08	1.2680E-07	7.5026E-07	7.5608E-07
-3.7354E-08	2.0030E-07	1.4880E-07	1.1496E-06
4.5933E-08	1.7690E-07	2.9476E-07	-1.8461E-07
7.8484E-08	1.9594E-07	-5.0074E-07	7.7485E-07
1.4887E-07	1.1215E-07	1.0039E-06	2.7145E-07
1.7105E-07	2.1705E-08	2.0729E-07	1.2427E-06
7.9610E-08	-7.7262E-08	6.5923E-07	8.5972E-07
1.7479E-08	-1.5166E-07	1.0836E-06	-1.0639E-06
-7.3495E-08	-6.2406E-08	9.4601E-07	1.1948E-06
-1.6735E-07	2.1578E-08	9.3949E-08	1.8120E-07
-1.3606E-07	1.1864E-07	7.6039E-07	8.0300E-07
-8.2153E-08	1.8620E-07	1.3797E-07	6.4103E-07
4.7051E-08	2.0928E-07	1.8441E-06	1.2371E-06
1.2689E-07	2.1264E-07	1.1298E-06	1.9493E-07
2.1298E-07	1.2050E-07	7.1922E-07	6.0626E-07
1.4341E-07	2.1879E-08	1.4514E-06	5.8868E-08
6.6300E-08	-8.8092E-08	6.8251E-07	-3.3970E-07
-1.7011E-08	-8.8384E-08	5.1873E-07	1.5979E-06
-1.0931E-07	-4.4716E-08	7.4321E-07	1.6723E-06
-1.5125E-07	-3.5881E-08	-4.3293E-07	1.5710E-06
-1.2056E-07	1.6285E-08	9.0150E-08	4.1025E-07
-1.2920E-07	1.1593E-07	1.0855E-06	1.7447E-06
-1.2775E-07	8.7485E-08	-3.6886E-07	-1.3388E-07
-9.1191E-08	8.3292E-08	-2.3582E-07	1.0294E-06
-1.0221E-07	1.1123E-07	6.2805E-07	-3.0191E-07
-1.0474E-07	8.9334E-08	-6.9050E-07	1.3494E-06
-9.0858E-08	1.3364E-07	5.7595E-07	6.3028E-07
-9.5488E-08	1.6011E-07	1.2746E-06	-1.0209E-06
-4.2112E-08	1.8527E-07	1.7284E-06	2.1976E-07
-6.5622E-09	1.4756E-07	-2.0155E-06	-3.8938E-07
6.7327E-08	1.0619E-07	-3.5904E-07	9.1907E-07
4.1879E-09	4.2211E-08	6.5916E-07	1.8528E-06
2.0788E-08	2.7581E-08	3.8893E-07	2.1960E-06
-1.9239E-08	-6.4071E-09	2.4826E-07	2.2256E-06
-1.5064E-07	2.6442E-08	-8.0065E-07	1.5321E-07
-1.4889E-07	1.1255E-07	-8.9129E-07	1.3326E-06
-1.5227E-07	1.5925E-07	9.2023E-07	1.5296E-06
-9.5218E-08	1.7367E-07	6.5291E-07	7.3093E-07
-1.9894E-08	2.0075E-07	-3.2744E-07	4.4736E-07
8.0351E-09	1.3753E-07	1.8410E-06	9.5680E-08
8.9857E-08	1.0886E-07	-7.8552E-07	1.7265E-06
6.0481E-08	5.0328E-08	-1.5036E-06	6.5218E-07
2.7469E-08	1.1649E-08	8.3938E-07	8.7128E-07
-5.4460E-08	4.7484E-08	1.5520E-06	1.6200E-06
-7.4177E-08	6.9957E-08	6.7750E-07	6.5426E-07
-8.6529E-08	1.3506E-07	8.6608E-07	5.8351E-07
-7.3067E-08	1.7169E-07	2.3562E-08	-2.4313E-07
-4.3678E-08	1.3933E-07	6.7243E-07	-5.7448E-07
1.2069E-08	1.4418E-07	-1.4721E-07	8.7507E-07
-1.7500E-08	1.6416E-07	6.2740E-07	2.8696E-06
6.2558E-09	1.5185E-07	6.2060E-07	6.7562E-07
5.1871E-09	1.0364E-07	3.7793E-07	1.1019E-07
-4.2430E-08	1.1473E-07	2.3271E-06	4.7357E-07
-2.1869E-08	7.9923E-08	7.3194E-07	1.6588E-06
3.0269E-08	1.3473E-07	1.7802E-06	2.0742E-06
1.1185E-08	1.2397E-07	-4.2870E-07	-3.0785E-08
4.0741E-08	5.7594E-08	9.7249E-07	-1.7019E-07
4.0819E-08	4.3599E-08	2.3814E-07	9.5969E-07
2.2660E-08	2.2574E-08	3.2657E-06	8.3425E-07
-4.1299E-08	1.5003E-08	1.1337E-06	1.7969E-06
-6.5355E-08	2.4431E-08	1.0335E-06	1.6642E-06
-9.4582E-08	2.9466E-08	2.3026E-06	1.5510E-06
-1.1999E-07	5.2060E-08	1.3511E-06	1.2441E-06
-1.0842E-07	1.4348E-07	-7.2472E-07	1.7142E-06
-6.1974E-08	1.2909E-07	1.3196E-06	6.8990E-07
-2.3499E-08	1.4238E-07	1.5351E-07	-4.5890E-07
-7.5449E-09	1.1050E-07	8.7846E-07	1.8512E-06
-1.1689E-09	4.8377E-08	2.0764E-06	-4.9749E-08
-1.6613E-08	3.2444E-08	2.4158E-06	-5.7230E-09
-2.7559E-08	4.6165E-08	4.8429E-07	-1.4324E-07
-9.5724E-08	7.7931E-08	8.0870E-07	1.3128E-06
-9.6549E-08	7.4957E-08	9.8626E-07	2.7890E-06
-1.0170E-07	1.1336E-07	8.9787E-07	-6.9144E-07
-6.9550E-08	1.0938E-07	8.4725E-07	7.2754E-07
-2.6365E-08	1.6070E-07	1.6743E-06	5.9053E-07
-3.8353E-08	1.2866E-07	1.2857E-06	5.9597E-07
2.1577E-08	1.4064E-07	1.7941E-06	1.3667E-06
-1.6542E-08	1.1981E-07	1.4071E-06	-4.3328E-07
-1.0540E-08	1.1986E-07	1.8293E-06	-3.1013E-07
-2.9600E-08	1.1970E-07	7.9981E-07	1.0245E-07
-1.1309E-08	7.3883E-08	1.3613E-06	6.1449E-07
-5.5717E-08	9.7598E-08	-8.4696E-07	1.3440E-06
-4.6523E-08	8.4175E-08	1.5688E-06	1.7739E-07
-8.7472E-08	7.4635E-08	2.0474E-06	2.2758E-06
-1.0149E-07	1.0552E-07	1.2343E-06	4.9803E-07
-5.0344E-08	1.1727E-07	7.6000E-07	1.6934E-06
-3.6524E-08	1.6363E-07	2.4295E-07	-3.6168E-07
-3.4976E-08	1.4853E-07	1.7798E-07	4.9444E-07
-6.8259E-10	1.4328E-07	1.2159E-06	2.4225E-07
9.8469E-09	1.5769E-07	2.7825E-07	1.1839E-06
7.0988E-09	1.6062E-07	-9.2140E-08	-5.1814E-07
3.9244E-08	7.6038E-08	1.8752E-06	1.0258E-06
3.1619E-08	7.7498E-08	1.1014E-06	9.2957E-07
3.8608E-09	7.3985E-08	4.2227E-07	2.0180E-06
1.4807E-08	7.1768E-08	9.5616E-07	1.1043E-06
-1.6341E-08	7.8550E-08	7.2954E-07	1.2469E-06
1.0108E-08	6.2537E-08	1.9579E-06	7.5636E-08
-6.5282E-08	1.2701E-07	-5.1028E-07	-1.4541E-06
-1.5475E-08	6.6901E-08	1.5882E-06	-9.8415E-07
-4.4438E-09	7.9204E-08	2.0192E-06	1.4894E-06
-3.9927E-09	5.4440E-08	1.7690E-06	4.3242E-07
-1.9483E-08	4.9394E-08	1.9094E-06	4.9628E-07
-2.3672E-08	7.3602E-08	-8.2907E-07	4.4738E-07
-3.9595E-08	5.9651E-08	1.1180E-06	8.5479E-07
-6.7336E-08	5.3906E-08	-2.9017E-07	-1.2719E-07
-1.0659E-07	9.2076E-08	1.8133E-06	3.3697E-07
-5.3114E-08	1.1487E-07	5.4586E-07	8.0743E-07
-6.9071E-08	9.2933E-08	1.4038E-06	-2.2711E-07
-6.2549E-08	1.0631E-07	1.0285E-07	7.5675E-07
-7.0627E-08	9.7612E-08	-3.8520E-07	-7.2396E-08
-4.0961E-08	8.7399E-08	1.0124E-06	1.2810E-07
-6.8527E-08	5.7157E-08	2.0196E-06	-2.2017E-07
-6.8518E-08	1.2696E-07	-9.4188E-08	9.4511E-07
-2.3182E-08	1.3031E-07	1.0415E-06	3.4536E-07
-5.1270E-08	1.4422E-07	1.4084E-06	2.5131E-06
-2.7843E-08	9.9808E-08	8.9220E-08	1.1438E-06
-4.9712E-08	8.5523E-08	9.4507E-07	-4.9779E-07
-5.3500E-08	1.2284E-07	6.5573E-07	3.1341E-07
-1.3890E-08	8.4433E-08	1.5975E-06	1.2099E-06
-3.1999E-08	1.3561E-07	2.1460E-06	-1.8748E-07
-3.7532E-08	1.1045E-07	7.9677E-07	3.2299E-07
-3.3104E-08	1.0985E-07	1.0115E-06	5.4336E-07
-4.8863E-08	1.3063E-07	6.9943E-07	7.2117E-07
-4.8125E-08	1.2738E-07	2.2930E-06	9.4636E-07
-3.3171E-08	8.8854E-08	6.5531E-07	1.0663E-06
