jMRUI Data Textfile

Filename: Export_to_jmrui.txt

PointsInDataset: 2048
DatasetsInFile: 1
SamplingInterval: 0.250000
ZeroOrderPhase: 0E0
BeginTime: 0E0
TransmitterFrequency: 1.2326E8
MagneticField: 2.8936E0
TypeOfNucleus:  
NameOfPatient:  
DateOfExperiment:  
Spectrometer:  
AdditionalInfo: 
SignalNames:  


Signal and FFT
sig(real)	sig(imag)	fft(real)	fft(imag)
Signal 1 out of 1 in file
1.2803E-06	2.9360E-08	-1.1158E-06	-1.1499E-06
1.7606E-06	-2.7870E-07	-2.5651E-06	-9.8455E-08
1.2403E-06	-8.1459E-07	-4.4054E-07	-1.3452E-06
7.4886E-07	-1.0354E-06	-9.4604E-07	-4.6578E-08
6.8621E-08	-9.1880E-07	1.2636E-06	9.8121E-07
-3.3673E-07	-6.6204E-07	-9.8624E-07	-7.5033E-07
-5.0898E-07	-2.7178E-07	-1.6384E-06	1.9765E-06
-2.9551E-07	6.3655E-08	4.2622E-07	-3.5300E-07
-4.8869E-08	1.7107E-07	-4.5876E-07	-1.2317E-06
2.6731E-07	1.0930E-07	5.8937E-07	-3.0842E-07
4.2639E-07	-6.9627E-08	-7.8459E-07	1.8997E-06
4.1925E-07	-2.7265E-07	1.9551E-07	1.3913E-06
2.4913E-07	-4.2517E-07	1.5679E-06	6.7159E-07
5.0741E-08	-4.2923E-07	3.8357E-08	4.1300E-07
-1.7485E-07	-2.5598E-07	-2.3979E-07	3.8524E-07
-1.8149E-07	-1.1094E-07	4.6983E-07	8.6166E-07
-1.3388E-07	1.5060E-08	-7.4446E-08	5.7169E-07
-2.7506E-08	3.0864E-08	1.4068E-07	-7.5117E-08
2.8274E-08	-9.0053E-09	3.3927E-07	1.8509E-06
7.6775E-08	-1.2213E-07	-7.9974E-07	6.1086E-07
-6.5560E-08	-2.1228E-07	1.1810E-06	2.0798E-06
-1.7006E-07	-9.1278E-08	-5.3576E-07	-8.0469E-08
-2.7714E-07	1.3231E-08	3.6560E-07	1.9982E-06
-2.3619E-07	8.6917E-08	4.1972E-07	1.1879E-06
-1.5189E-07	1.9229E-07	-9.3236E-07	-6.1044E-07
-1.5959E-08	2.2414E-07	7.2939E-07	-1.0279E-07
1.0699E-07	1.4099E-07	7.0675E-07	6.8312E-07
1.6055E-07	4.3498E-08	-1.1766E-06	-9.5403E-07
1.2002E-07	-6.5536E-08	-2.2580E-07	-4.5449E-07
4.3778E-08	-7.5572E-08	6.8691E-07	-6.0893E-07
-9.0011E-08	-1.8441E-08	-1.1047E-07	7.4586E-07
-1.6221E-07	1.1333E-07	2.7129E-07	7.8818E-07
-1.5316E-07	2.6002E-07	2.4120E-07	-1.2439E-06
-3.1189E-08	2.9206E-07	3.0979E-07	8.4117E-07
4.8775E-08	2.9671E-07	-2.9615E-07	-4.4072E-07
1.9709E-07	2.3759E-07	-7.6225E-07	6.2844E-07
2.3614E-07	1.4930E-07	-1.1837E-06	1.7401E-06
2.2903E-07	4.8980E-08	1.3884E-06	-1.1234E-06
1.8195E-07	3.7271E-08	3.5620E-07	-7.1440E-07
1.0235E-07	1.7212E-08	-9.7482E-08	-3.9720E-07
8.7471E-08	5.0476E-08	1.2674E-06	9.8134E-07
1.6550E-07	6.1832E-08	2.7776E-07	8.4207E-07
1.1756E-07	4.9362E-08	-1.1731E-06	5.0035E-07
1.4113E-07	-7.3734E-09	-1.1817E-07	-1.6901E-07
1.7886E-07	-1.0048E-07	2.6545E-07	2.9273E-07
9.6308E-08	-1.6450E-07	1.1640E-06	1.9794E-07
6.4845E-08	-1.2825E-07	7.2829E-07	1.3152E-06
-6.9167E-10	-1.1958E-07	-5.5005E-07	2.6565E-07
-2.5162E-08	-1.8550E-08	9.6288E-07	3.1694E-08
-4.3580E-09	2.1994E-08	9.4957E-07	-4.3941E-07
3.2740E-09	3.7532E-09	-6.2580E-07	-1.6345E-06
-9.4309E-09	9.8946E-09	-4.7166E-09	-4.6545E-07
7.1112E-08	-4.9931E-08	1.2843E-06	2.1530E-07
4.8510E-08	5.7276E-09	4.4736E-07	1.3725E-06
-3.8379E-08	-5.4974E-08	-3.5698E-07	9.4254E-07
-4.4130E-08	-2.1062E-08	-5.0527E-08	1.5880E-06
-9.9699E-08	2.5321E-08	1.0744E-06	2.1229E-06
-2.7334E-08	6.6151E-08	7.9665E-07	5.2184E-07
1.8658E-08	3.9832E-08	2.1432E-07	1.4734E-06
1.8247E-08	5.6648E-08	1.1049E-07	-4.8175E-07
6.6231E-08	-9.6954E-09	7.7180E-07	6.6972E-07
1.0646E-07	-2.7120E-08	1.2498E-06	-1.0719E-07
2.2463E-08	-9.2657E-08	3.9247E-07	6.8950E-07
-6.9638E-08	-4.6952E-08	9.5125E-07	4.2840E-08
-1.1536E-07	-9.2147E-09	1.1719E-06	3.6691E-07
-1.4161E-07	6.2347E-08	1.2575E-06	-7.9844E-07
-1.2694E-07	1.0030E-07	-3.0583E-07	-1.3367E-06
-1.3043E-07	1.4580E-07	-2.3695E-08	-1.6778E-06
-4.6190E-08	1.2823E-07	6.4475E-07	1.9759E-06
-5.8780E-08	1.4494E-07	-5.1092E-07	1.3819E-06
1.7371E-08	9.0094E-08	-4.5485E-07	8.5629E-07
-1.3559E-08	6.8038E-08	8.2070E-07	-3.4349E-07
-7.1544E-08	3.1378E-08	3.3595E-09	4.1604E-07
-1.2000E-08	7.0095E-08	4.1103E-07	8.2122E-07
-3.4888E-08	1.2110E-07	-5.3183E-07	1.8503E-06
1.9470E-08	1.4880E-07	2.1620E-07	4.6068E-07
2.4502E-08	9.3060E-08	2.2886E-08	-2.8455E-07
3.3399E-08	7.7207E-08	5.4746E-07	9.1410E-08
1.8110E-08	5.7370E-08	-4.8075E-07	-1.6339E-06
-1.5774E-09	5.1642E-08	-7.0691E-07	9.7039E-08
-3.1956E-08	2.3941E-08	6.4910E-07	6.1152E-07
-8.2030E-08	1.0801E-07	-6.6673E-08	-4.2154E-07
-8.8352E-08	1.5281E-07	1.2127E-06	5.6150E-07
1.0908E-08	1.8952E-07	1.0424E-06	-6.3126E-07
1.2512E-07	1.1132E-07	7.2312E-07	1.3985E-06
1.1129E-07	9.0652E-08	-2.4253E-07	6.2262E-07
1.0769E-07	-5.4650E-09	6.7787E-07	1.1035E-06
1.0907E-07	-7.0196E-08	-2.5512E-07	-5.5982E-08
-1.3015E-08	-8.0028E-08	4.8401E-07	-4.6789E-07
-4.7729E-08	-3.9417E-08	-8.0239E-07	-9.7564E-07
-1.1271E-07	-3.7304E-10	-7.7753E-07	1.2694E-06
-3.7351E-08	8.5609E-08	-3.9314E-07	7.9268E-07
-5.7635E-08	1.1936E-07	2.3398E-06	1.5643E-06
2.1126E-08	1.2650E-07	4.8623E-07	4.2616E-07
7.1070E-08	1.2857E-07	2.3488E-06	1.8587E-07
6.5689E-08	5.3507E-08	1.2878E-06	-8.6647E-07
8.8226E-08	-1.0807E-08	-1.2267E-06	-1.3048E-06
2.2492E-08	-4.1062E-08	1.4120E-06	9.3240E-07
6.8399E-09	-2.4428E-08	3.0356E-07	6.8410E-07
-4.4944E-08	-6.3515E-08	-2.1964E-07	2.8052E-07
-6.7870E-08	-1.3367E-08	1.2555E-06	-4.9257E-07
-8.3814E-08	1.8802E-08	1.3501E-06	-5.4472E-07
-5.3980E-08	6.7389E-08	-3.2849E-07	1.9930E-06
-5.9756E-08	5.7946E-08	-1.4941E-06	-4.6297E-07
-4.8854E-08	7.7784E-09	8.9607E-07	1.2279E-06
-5.2332E-08	2.8369E-08	-3.4748E-07	8.0555E-07
-8.8001E-08	6.1815E-08	2.8947E-07	1.8904E-07
-6.9453E-08	5.9971E-08	-8.0685E-07	8.7009E-07
-7.4186E-08	5.3660E-08	7.1497E-07	1.0557E-06
-6.2684E-08	6.4740E-08	1.5649E-06	9.8079E-08
-1.5745E-08	9.8395E-08	5.4583E-07	1.4188E-06
-9.4590E-10	6.4607E-08	-1.8476E-06	1.0700E-06
1.6877E-08	8.4322E-08	-1.2677E-06	5.6241E-07
1.6042E-09	1.2991E-08	6.0665E-07	1.1009E-06
-3.0796E-08	7.9096E-09	-1.6187E-07	-1.7157E-07
-8.1316E-08	-6.2100E-09	5.6893E-07	-5.7331E-08
-1.0060E-07	5.7901E-08	-7.4335E-07	9.4782E-07
-8.5843E-08	8.9327E-08	-1.0724E-06	1.9501E-06
-5.8662E-08	1.0470E-07	-5.3601E-07	-1.4593E-07
5.7787E-09	1.6911E-07	-1.5464E-07	5.6425E-07
-5.6162E-08	7.5257E-08	4.4572E-07	2.2566E-06
3.8055E-08	1.0362E-07	2.6057E-08	-9.1585E-08
3.3755E-08	3.1342E-08	-3.4550E-07	6.3327E-07
1.5917E-09	5.7396E-08	5.7974E-07	2.3922E-07
2.0366E-09	2.6121E-08	4.7993E-07	-6.1435E-07
-2.5637E-08	2.5671E-08	-4.8698E-08	-1.9474E-07
-6.0432E-08	8.9897E-08	1.5895E-07	3.2062E-07
-4.2605E-08	8.5219E-08	1.4314E-06	1.7730E-06
-1.2923E-09	8.0667E-08	5.4198E-07	1.1413E-06
-1.7267E-08	1.0728E-07	8.0978E-07	3.2479E-07
-4.5339E-09	8.8599E-08	4.5135E-07	-9.2690E-07
-4.6088E-09	8.2656E-08	2.7802E-07	1.9151E-07
1.5386E-08	7.0482E-08	9.8178E-07	6.0170E-07
1.8462E-08	9.8409E-08	-1.1585E-06	1.2598E-07
6.2023E-08	8.9301E-08	9.9011E-07	1.2822E-06
1.8129E-09	5.2693E-08	1.4430E-06	-4.6632E-07
2.5162E-09	2.2148E-08	-8.0619E-07	1.1965E-06
1.7576E-08	4.5981E-08	-6.7485E-07	5.7428E-07
9.3567E-09	3.5966E-08	-1.4646E-07	8.3045E-07
1.8768E-08	-6.9085E-09	-4.2278E-09	2.2949E-06
-1.6588E-08	5.2296E-08	-7.7748E-07	1.3833E-06
-5.2462E-08	-2.4860E-09	-1.2594E-06	5.2821E-07
-9.0628E-08	3.7772E-08	-1.8961E-07	-4.2266E-07
-3.5865E-08	4.9746E-08	8.3116E-07	1.0413E-06
-2.8015E-08	5.5139E-08	5.8111E-07	-4.5672E-07
-5.7711E-08	7.0494E-08	-3.2845E-07	5.4657E-07
1.1323E-08	4.1104E-08	9.9170E-07	1.0271E-06
1.6440E-09	6.0518E-08	-5.1493E-07	2.8090E-07
-4.1686E-08	5.5849E-08	6.7313E-07	1.3623E-06
-6.6473E-08	3.1269E-08	2.0119E-06	1.5750E-06
-2.2712E-08	2.5484E-08	1.3591E-06	1.1480E-06
-5.1530E-08	5.7817E-08	2.1771E-07	-5.6679E-07
-5.2679E-08	6.8496E-08	9.5682E-07	-6.7509E-07
-3.5437E-08	5.9335E-08	-8.1785E-07	-1.9940E-06
-3.4213E-08	4.8121E-08	8.8924E-07	-4.2616E-07
-4.5688E-08	9.9526E-08	2.1761E-08	-1.2734E-06
-2.5767E-08	8.1208E-08	-1.0828E-06	-1.2220E-07
1.6889E-08	8.0612E-08	-5.4723E-07	3.5514E-07
2.0177E-08	5.5766E-08	-6.9874E-07	1.8088E-06
1.1684E-08	9.8119E-08	2.2907E-06	-8.8324E-07
8.8202E-09	5.9087E-08	-1.2987E-06	1.3367E-06
-2.0837E-09	7.1374E-08	1.2337E-06	1.9039E-07
-9.9978E-10	1.6488E-08	1.4583E-06	1.3337E-06
-1.7108E-08	3.2947E-08	-8.0453E-08	1.4318E-06
-4.5615E-09	7.6866E-08	1.4322E-06	8.4563E-07
-5.0011E-08	5.0598E-08	4.1977E-07	-1.5561E-06
-1.4778E-08	4.2296E-08	8.8088E-07	1.6449E-06
-6.2585E-08	1.1932E-07	1.2537E-06	6.9425E-07
-3.8653E-08	9.4644E-08	4.0261E-07	1.7942E-06
-1.1217E-08	1.2347E-07	-1.3113E-06	5.7762E-07
2.9332E-08	1.0882E-07	1.6924E-06	-4.5695E-07
2.4450E-08	9.5023E-08	4.3003E-07	1.9420E-06
2.1624E-08	7.3196E-08	-1.6029E-07	2.8965E-07
5.5548E-08	4.7339E-08	2.2050E-07	-2.7201E-07
2.4944E-08	5.9851E-08	-3.5532E-07	5.6625E-07
2.3348E-09	3.3913E-08	-1.1004E-06	1.2587E-06
8.0363E-09	5.6031E-08	6.0254E-07	1.1183E-06
9.1088E-09	1.5417E-08	-2.8732E-07	-8.3739E-07
1.4227E-08	6.5430E-08	1.0283E-06	1.8127E-06
-1.8015E-08	2.2028E-08	3.5827E-07	6.5486E-07
9.7377E-09	2.5820E-08	-8.3760E-07	-1.5468E-06
4.0963E-09	3.0616E-08	2.5204E-07	1.4984E-06
-1.2191E-08	2.5569E-08	1.7215E-06	-5.5511E-07
3.7392E-08	3.8847E-08	1.1253E-06	3.3088E-07
-7.7821E-09	1.2741E-08	5.3144E-07	-1.5021E-06
-3.1109E-10	3.6759E-08	4.2845E-08	1.7636E-06
-2.0513E-08	-2.9963E-09	1.1151E-07	-1.1686E-06
-4.7552E-08	1.6249E-08	1.5936E-06	1.3590E-06
-4.0421E-08	5.3335E-08	3.0856E-07	-1.6669E-06
-5.6157E-08	7.0606E-08	-8.3602E-07	7.7863E-07
-4.5796E-08	6.3871E-08	5.3235E-07	2.9496E-06
-4.8208E-08	8.0608E-08	1.3145E-06	3.6231E-07
-3.8116E-08	1.0560E-07	-1.1361E-07	-4.2076E-07
-8.3647E-09	7.5399E-08	3.9149E-07	5.5889E-07
1.1746E-08	8.3700E-08	-1.3038E-06	-4.3503E-07
-3.8273E-09	7.7897E-08	2.8770E-07	1.2210E-06
-5.9841E-08	4.1689E-08	1.4161E-06	1.6136E-07
-3.7975E-08	6.2741E-08	1.3444E-06	-7.2842E-08
-3.5611E-08	6.4077E-08	-9.8765E-07	-1.4334E-06
-1.9133E-08	8.0445E-08	-8.3047E-08	3.8982E-07
4.3633E-09	8.4935E-08	9.2101E-07	5.3317E-07
1.8332E-08	7.3905E-08	7.0612E-07	1.5598E-06
-5.9567E-09	5.8807E-08	-6.5678E-08	-7.8458E-07
2.6511E-08	7.8446E-08	-1.6842E-08	1.1327E-06
3.7406E-08	3.0112E-08	-8.9084E-07	-1.3656E-06
