jMRUI Data Textfile

Filename: Export_to_jmrui.txt

PointsInDataset: 2048
DatasetsInFile: 1
SamplingInterval: 0.250000
ZeroOrderPhase: 0E0
BeginTime: 0E0
TransmitterFrequency: 1.2326E8
MagneticField: 2.8936E0
TypeOfNucleus:  
NameOfPatient:  
DateOfExperiment:  
Spectrometer:  
AdditionalInfo: 
SignalNames:  


Signal and FFT
sig(real)	sig(imag)	fft(real)	fft(imag)
Signal 1 out of 1 in file
8.9201E-07	4.0220E-08	-1.4386E-06	2.6831E-07
1.1840E-06	-1.8096E-07	4.1714E-07	1.2467E-06
8.7538E-07	-5.1380E-07	6.6003E-08	-1.3682E-06
5.2054E-07	-6.5657E-07	1.0710E-06	2.0435E-06
2.2925E-08	-6.1273E-07	-1.4475E-07	7.1523E-07
-1.8356E-07	-3.8613E-07	5.0017E-07	1.3940E-07
-2.5429E-07	-1.7507E-07	-3.3125E-07	-3.5390E-07
-1.3612E-07	1.6643E-08	5.2806E-07	1.0682E-06
7.5317E-08	9.5291E-08	1.0931E-06	-1.5345E-06
2.5744E-07	1.9428E-08	-9.5862E-07	3.9932E-07
3.5220E-07	-1.6549E-07	1.6222E-06	1.3592E-06
2.8618E-07	-2.3762E-07	5.4063E-07	-1.2651E-07
1.5158E-07	-3.3235E-07	-2.5881E-07	-7.3349E-07
-3.9938E-08	-2.9254E-07	-5.1986E-07	-5.7747E-07
-1.2899E-07	-1.8581E-07	-1.4409E-06	4.8919E-07
-1.1363E-07	-1.5099E-08	-4.0706E-07	8.5523E-07
-4.4344E-08	1.8084E-08	-1.9338E-06	-1.2099E-06
4.7337E-08	1.9416E-08	5.9318E-07	1.6651E-06
9.4851E-08	-2.9650E-08	8.2484E-07	-3.9065E-07
5.2429E-08	-1.4409E-07	5.8718E-07	-5.0541E-07
-2.7930E-08	-1.2521E-07	3.8100E-07	4.3206E-07
-1.5185E-07	-1.3482E-07	-4.8548E-07	-6.8294E-07
-1.9880E-07	-4.6882E-08	-1.2654E-06	4.5395E-07
-2.2639E-07	4.8117E-08	1.1306E-06	1.0748E-06
-9.1025E-08	1.2503E-07	1.4714E-06	-5.7371E-07
8.8257E-10	1.3429E-07	-1.0679E-06	-1.5314E-06
7.9848E-08	8.4349E-08	-1.9321E-07	1.6448E-06
1.4216E-07	2.3801E-08	-1.2538E-07	-8.5956E-07
1.2051E-07	-2.4043E-08	-9.3147E-07	7.6683E-08
2.0801E-08	-6.3419E-08	-3.8430E-07	6.4810E-08
-5.5084E-08	-1.5550E-08	-3.8844E-07	-1.5345E-07
-1.2957E-07	5.6167E-08	-1.0507E-06	-6.4971E-07
-1.1216E-07	1.4838E-07	4.1397E-07	-7.1805E-07
-4.1061E-08	1.8330E-07	6.2841E-07	-2.9221E-06
9.4277E-08	2.0349E-07	1.7984E-07	-1.9051E-06
1.2962E-07	1.6324E-07	-7.5761E-07	-5.8682E-07
1.9293E-07	9.2622E-08	1.7448E-07	8.2482E-08
1.6830E-07	7.2487E-08	-9.7577E-07	3.7267E-08
1.3255E-07	-7.6856E-09	1.3335E-06	9.6377E-08
5.5872E-08	4.2922E-08	6.2132E-08	1.1502E-06
5.2659E-08	2.0158E-08	1.0215E-07	-8.5958E-07
1.0870E-07	2.2555E-08	6.3813E-07	8.6892E-07
1.1896E-07	6.6819E-08	-9.2324E-07	-5.7921E-07
1.5644E-07	2.0459E-08	8.9135E-07	-8.7681E-08
1.3363E-07	-2.1716E-08	3.8581E-07	1.5427E-06
7.7226E-08	-6.5038E-08	-4.3764E-07	-8.4473E-07
4.8148E-08	-1.1185E-07	-9.6727E-07	3.4838E-07
1.6955E-09	-7.5506E-08	-9.5275E-08	-4.9605E-07
-4.1725E-08	-8.5108E-08	1.9366E-07	4.1608E-07
-5.2548E-09	4.4460E-09	6.4121E-07	2.4460E-07
9.5967E-10	4.4862E-08	5.2805E-07	1.9641E-06
5.8346E-09	2.6446E-08	-4.4480E-07	3.1438E-07
3.4938E-08	-8.1272E-09	-1.1525E-06	-1.1901E-06
5.4525E-08	-3.5360E-08	2.0147E-06	-1.5674E-06
1.0879E-08	-6.0095E-08	-4.7946E-07	-8.1268E-07
-4.5709E-08	-4.6354E-08	1.3188E-06	-1.3872E-07
-5.8660E-08	-5.5382E-09	-5.3475E-07	-1.5383E-07
-8.0775E-08	6.6567E-09	2.1842E-06	-1.0219E-06
-4.2337E-08	2.8199E-09	-7.9485E-07	7.7297E-07
-2.1112E-08	2.5100E-08	-2.2071E-07	1.3344E-07
2.4077E-08	-4.5130E-08	-4.3551E-07	6.4037E-07
6.6682E-08	-9.7695E-09	-6.1348E-07	6.2723E-07
1.0226E-08	-6.1335E-08	-1.0388E-07	4.0294E-07
-6.8977E-09	-7.7490E-08	3.7976E-07	8.4152E-07
-7.1379E-08	-6.1362E-08	1.9710E-07	-1.5088E-07
-1.1625E-07	-1.1296E-09	-8.9708E-08	9.9285E-07
-1.6990E-07	3.8389E-08	1.1447E-06	-3.9342E-07
-8.2217E-08	1.2310E-07	1.4148E-07	-1.0065E-06
-8.5457E-08	1.1244E-07	4.4531E-08	-4.2974E-07
-1.3081E-08	1.1281E-07	1.2404E-06	1.8856E-06
-6.2837E-08	9.3324E-08	1.4645E-07	1.2565E-06
-5.0627E-08	5.0563E-08	-8.6691E-07	4.6391E-07
-1.8384E-08	6.4013E-08	9.6923E-07	6.4198E-07
-3.5526E-08	9.7728E-08	1.3879E-06	1.2012E-06
-3.2960E-08	8.2734E-08	-1.5670E-07	3.6219E-07
4.4310E-08	5.6664E-08	-3.2009E-07	4.1986E-07
2.4000E-08	7.7892E-08	6.5838E-08	1.5692E-06
8.2854E-09	5.4053E-08	5.5086E-07	8.8729E-07
2.3046E-08	1.6919E-08	2.7017E-07	-1.8660E-07
-4.7612E-08	1.2395E-08	5.8777E-07	1.2593E-06
-5.3656E-08	3.7280E-08	-4.1179E-07	-4.8651E-07
-4.1992E-08	1.6584E-08	-6.5472E-07	7.3642E-07
-2.1961E-08	1.6147E-07	-1.0765E-06	8.9077E-07
4.6537E-09	1.3919E-07	-5.4792E-07	-7.8194E-07
1.0966E-07	8.3443E-08	-5.2260E-07	-3.6826E-08
1.1516E-07	7.2216E-08	2.9605E-07	3.4746E-07
1.0620E-07	2.8685E-08	7.7784E-07	-1.9739E-07
7.6539E-08	-3.7567E-08	1.2741E-08	2.4839E-08
3.3047E-08	-6.1246E-08	1.5291E-06	1.6782E-07
9.7322E-09	-4.0443E-08	-3.8615E-07	3.8552E-07
-3.8272E-08	4.1575E-08	5.9844E-07	1.3309E-06
-7.4904E-08	1.4899E-08	1.6339E-06	8.0647E-08
-1.5795E-08	7.1650E-08	-8.9407E-07	6.2756E-07
1.8835E-08	1.0106E-07	-1.2261E-06	8.5470E-07
7.2869E-08	4.4649E-08	2.2512E-07	7.9433E-08
6.8917E-08	2.0065E-08	2.2810E-07	-1.8317E-06
2.1019E-08	2.4975E-09	8.7798E-08	9.9506E-07
3.6094E-08	-1.7352E-08	7.9031E-07	1.0809E-06
-7.0980E-09	-4.9791E-08	1.1929E-06	1.4754E-06
-4.1607E-08	-3.0467E-08	1.6526E-06	2.2340E-06
-5.2394E-08	2.0517E-08	-3.9269E-07	4.1360E-07
-8.8194E-10	-2.1910E-08	3.3977E-07	1.7659E-06
-4.5289E-08	1.4366E-08	-5.1552E-07	1.5885E-06
-3.4973E-08	2.7871E-08	-5.0658E-07	1.2295E-06
-1.0206E-09	-6.4687E-09	-4.4858E-07	8.5470E-07
-4.2108E-08	1.7749E-08	7.4651E-07	1.7808E-06
-9.8578E-08	2.4417E-08	-1.7027E-06	1.3968E-06
-6.8803E-08	5.2702E-08	-3.2944E-07	-7.1497E-07
-6.8356E-08	7.1394E-08	1.3103E-06	3.4574E-07
-3.2266E-08	7.5348E-08	-1.8331E-06	-1.7826E-06
-2.6425E-08	7.4744E-08	-1.6043E-08	-4.6606E-07
6.9362E-08	7.1854E-08	9.2355E-08	-9.4822E-08
1.4649E-08	2.9032E-08	-1.2916E-07	1.0513E-06
4.4738E-09	1.8958E-08	6.7406E-07	-8.2388E-07
-2.4137E-08	6.3178E-08	-2.6734E-07	8.4694E-08
-8.5218E-08	4.4614E-08	-5.3986E-07	-9.5509E-07
-7.6203E-08	6.6520E-08	9.9073E-07	1.1078E-06
-7.2065E-08	5.8646E-08	6.4157E-07	5.0619E-07
-6.6714E-08	7.3793E-08	1.5879E-06	-7.6765E-07
-6.0913E-08	8.2184E-08	1.6644E-07	5.9642E-07
-4.0283E-09	7.6988E-08	4.6675E-07	2.2680E-06
2.8561E-08	6.9957E-08	4.4495E-07	-1.5413E-06
8.9361E-09	7.0950E-08	-1.2275E-06	-9.9752E-07
2.7852E-08	2.9949E-08	1.8263E-06	1.4975E-06
1.4873E-09	3.2280E-08	-4.1196E-07	2.6141E-07
-1.2867E-08	4.9666E-08	-1.2363E-06	3.9516E-07
-3.0400E-08	3.6598E-08	8.1589E-07	-6.6668E-07
-1.1849E-08	5.1766E-08	9.9601E-07	1.1852E-06
2.4408E-08	6.7223E-08	4.6934E-07	5.3790E-07
1.5862E-08	6.5184E-08	7.7010E-07	1.0892E-06
1.1673E-08	1.0236E-07	3.5259E-08	-9.4942E-07
2.6820E-08	9.4201E-08	-3.8079E-08	1.0897E-06
-2.4744E-08	5.2969E-08	7.3076E-07	1.0135E-06
5.0258E-08	5.9081E-08	-7.3098E-07	-2.0414E-06
4.7647E-08	5.4355E-08	6.2621E-07	1.1488E-06
-1.0430E-09	5.0338E-08	-7.8378E-07	1.5775E-06
7.8172E-09	6.8188E-08	1.3043E-06	2.0150E-08
-5.5492E-09	5.4063E-08	8.6759E-07	1.1256E-06
2.0947E-08	2.4699E-08	-4.6095E-07	1.8291E-06
4.6119E-08	3.4963E-08	6.8475E-07	-1.5733E-06
4.9182E-09	3.0075E-08	-6.7964E-07	-1.1145E-06
-4.5680E-08	1.7889E-08	4.4722E-07	7.3931E-07
-5.1722E-08	2.3298E-08	-2.1264E-07	-1.2650E-06
-4.0720E-08	6.0174E-08	-3.4986E-08	6.6590E-07
-5.0902E-08	6.8524E-08	5.4927E-07	2.3431E-06
6.3073E-09	7.2201E-08	9.8651E-07	3.9375E-07
-6.4974E-08	5.4000E-08	6.8238E-07	4.4685E-07
1.8877E-09	3.6193E-08	3.4422E-07	1.7331E-06
1.2765E-08	1.5884E-08	9.9089E-08	3.3666E-07
1.1400E-08	7.7521E-09	1.7565E-06	-3.4271E-08
-2.6839E-08	3.3340E-08	7.8351E-07	-8.2228E-09
-5.7348E-08	2.5801E-08	-1.6109E-06	8.0201E-07
-1.3553E-08	4.5658E-08	9.8263E-08	1.2122E-06
-6.2157E-08	1.1072E-07	-2.3511E-07	-1.6042E-08
-3.6949E-08	7.7879E-08	4.5634E-08	7.6994E-07
-1.1225E-08	7.4116E-08	4.1389E-07	6.6005E-07
2.3687E-08	7.3555E-08	-1.0547E-06	9.6183E-07
1.4434E-09	4.6842E-08	2.8298E-07	1.3930E-06
-5.1153E-08	3.7005E-08	1.0260E-06	4.6963E-07
-1.6827E-08	3.3059E-08	3.3632E-07	5.9674E-07
-9.8399E-09	3.5464E-08	9.2988E-07	-3.7715E-09
6.0866E-09	7.7033E-08	-4.2716E-07	-3.5912E-07
-1.0617E-08	6.8897E-08	2.1482E-07	4.1427E-07
-1.3465E-08	2.8320E-08	6.3579E-07	5.4267E-07
-4.2396E-08	6.8176E-08	6.2206E-08	8.2040E-07
-2.0870E-08	6.4598E-08	3.2709E-07	-6.6751E-07
-2.2344E-08	9.3506E-08	-9.0894E-07	-6.9469E-08
-2.7197E-08	8.7773E-08	-1.1408E-07	8.5690E-07
6.3879E-09	7.6620E-08	7.2182E-09	2.4813E-08
4.5953E-09	6.1044E-08	-1.0062E-06	-1.7682E-07
1.2260E-08	9.5404E-08	1.2030E-06	2.6775E-07
5.8977E-08	1.2788E-07	-3.5418E-07	9.2910E-07
1.7848E-08	4.7619E-08	-1.0740E-06	1.4611E-06
4.5549E-08	3.8492E-08	5.1491E-07	1.4230E-06
8.3836E-09	9.0166E-09	1.5113E-07	-6.7318E-07
4.3797E-08	5.2112E-08	1.5971E-06	-1.0681E-06
1.2894E-08	3.3898E-08	1.6424E-06	2.5773E-07
1.1804E-08	2.4283E-08	-1.0365E-06	-6.9656E-07
-1.4692E-08	1.4456E-08	2.9597E-07	4.0701E-07
-2.8371E-08	3.2006E-08	-7.2382E-07	1.4516E-06
-2.6613E-08	4.5290E-08	-9.1354E-08	1.4828E-06
-2.8436E-09	2.7317E-08	-3.3545E-07	1.8800E-06
-1.1586E-08	4.9656E-08	-7.0470E-07	-9.8200E-08
-1.7962E-08	5.2888E-09	-9.7655E-08	-1.0673E-06
-1.5528E-08	-6.7874E-09	1.2420E-06	2.6108E-07
-2.3055E-08	-3.7654E-09	-5.8361E-07	1.7036E-06
7.1720E-10	1.6281E-08	3.5042E-07	2.5023E-07
-5.0270E-08	5.1111E-08	-1.8491E-06	7.0043E-07
-2.6121E-08	2.2292E-08	-8.3327E-07	-2.8193E-08
-7.4983E-08	4.0242E-08	2.8590E-07	8.5014E-08
-5.0464E-09	3.8682E-08	-1.1601E-06	4.6787E-07
-5.0896E-08	6.8325E-08	-3.6283E-08	1.1088E-06
-8.4754E-09	8.7030E-08	1.2473E-06	8.8617E-07
-2.2735E-09	6.7821E-08	-2.0039E-07	-1.3246E-06
1.1986E-08	5.2731E-08	1.4084E-06	4.2793E-07
1.5843E-08	5.2615E-08	8.0355E-07	1.2045E-06
-3.2814E-08	8.9754E-08	-2.0692E-06	3.6055E-07
-1.9394E-08	5.2454E-08	-8.8313E-07	-1.0904E-06
-1.4214E-08	8.1349E-08	1.7837E-06	6.2029E-07
-1.0770E-08	4.7273E-08	1.5861E-07	-1.1696E-06
1.6256E-08	6.4575E-08	5.4137E-07	9.3424E-07
8.4313E-09	4.7119E-08	-7.4614E-07	1.6072E-06
-9.4271E-09	6.5659E-08	-2.4294E-08	8.4492E-07
-6.0843E-08	3.1829E-08	7.9601E-07	4.6228E-08
-3.0186E-10	3.0247E-08	1.7543E-06	-9.5599E-07
