jMRUI Data Textfile

Filename: Export_to_jmrui.txt

PointsInDataset: 2048
DatasetsInFile: 1
SamplingInterval: 0.250000
ZeroOrderPhase: 0E0
BeginTime: 0E0
TransmitterFrequency: 1.2326E8
MagneticField: 2.8936E0
TypeOfNucleus:  
NameOfPatient:  
DateOfExperiment:  
Spectrometer:  
AdditionalInfo: 
SignalNames:  


Signal and FFT
sig(real)	sig(imag)	fft(real)	fft(imag)
Signal 1 out of 1 in file
6.4477E-07	2.6838E-08	1.0742E-06	1.5127E-06
8.6605E-07	-1.4656E-07	8.0945E-07	6.1120E-07
6.3368E-07	-3.7397E-07	-1.6074E-06	9.6282E-07
3.5217E-07	-4.6855E-07	2.4807E-07	-4.0933E-07
4.0893E-08	-4.2753E-07	4.2380E-07	-1.4601E-06
-8.8634E-08	-2.2130E-07	4.5877E-08	1.1977E-06
-2.0515E-07	-1.0329E-07	-2.0763E-07	-1.5801E-06
-5.4254E-08	5.6526E-08	2.1721E-07	-6.1101E-07
9.0582E-08	4.6686E-08	-5.6288E-07	-1.4190E-06
2.2674E-07	2.4514E-08	7.8310E-07	1.1871E-06
2.7681E-07	-1.3182E-07	1.3203E-07	1.3513E-06
2.1765E-07	-2.1314E-07	1.3520E-06	1.5773E-06
1.2342E-07	-2.7631E-07	3.7423E-07	6.8746E-07
-5.7073E-09	-2.0436E-07	1.1544E-06	-2.0064E-06
-9.1058E-08	-1.2278E-07	-2.9455E-07	-1.3742E-06
-8.2424E-08	-6.2473E-08	1.3622E-06	7.8474E-07
-4.3475E-08	5.2715E-08	3.7771E-07	-4.7857E-07
2.9505E-08	6.5140E-08	-2.7526E-07	2.4183E-06
1.0847E-07	3.6709E-08	-6.3165E-09	-1.2984E-06
8.9469E-08	-1.1611E-07	-7.4532E-07	5.4191E-07
1.5634E-08	-1.1519E-07	2.4819E-06	1.9924E-07
-7.1313E-08	-1.1661E-07	3.1837E-07	7.9453E-07
-1.5836E-07	-5.5934E-08	4.5924E-07	5.7021E-07
-1.5090E-07	3.0078E-08	2.2430E-08	1.4908E-07
-1.1461E-07	6.5394E-08	-1.8227E-06	-1.3053E-07
4.0076E-09	1.4467E-07	1.4003E-06	-5.9832E-07
1.0851E-07	7.1528E-08	2.2285E-07	-5.8539E-07
1.0517E-07	-1.5945E-08	-7.6180E-07	3.2865E-07
1.0869E-07	-2.4667E-08	-8.1433E-07	9.3108E-07
2.1974E-08	-7.1919E-08	8.9931E-07	-9.2044E-07
-5.3190E-08	-3.7767E-08	-4.5031E-07	-7.0137E-07
-1.1578E-07	1.5612E-08	-4.4011E-07	-5.0982E-07
-7.8680E-08	1.2078E-07	-4.3196E-07	-3.5259E-07
-2.7561E-09	1.9430E-07	7.0041E-07	-1.0975E-06
3.5315E-08	1.8821E-07	5.9771E-07	7.1446E-07
1.0958E-07	1.2737E-07	4.0230E-07	1.6499E-06
1.3565E-07	9.1121E-08	-5.9271E-07	-1.2902E-06
1.3167E-07	3.6853E-08	-1.1118E-06	-6.1510E-07
7.5937E-08	3.0420E-08	-1.2576E-06	2.2641E-06
7.5722E-08	1.4441E-08	1.0350E-07	-5.0206E-07
2.9785E-08	2.1425E-08	7.1961E-07	-6.2446E-07
6.2817E-08	4.0185E-08	-6.9316E-07	-6.3673E-07
1.1011E-07	5.8889E-08	-1.9868E-06	9.3239E-07
1.2439E-07	1.5506E-09	1.7001E-06	3.5770E-07
1.2743E-07	-3.2085E-08	-1.0325E-06	1.8780E-06
9.8105E-08	-6.2523E-08	4.3952E-07	-1.2269E-06
3.9471E-08	-1.0460E-07	5.1302E-07	-3.0142E-07
-8.9028E-09	-7.7721E-08	-3.4914E-07	2.0868E-07
-1.1326E-08	-5.7771E-08	1.0163E-06	-1.2475E-07
8.2202E-09	-1.1861E-09	1.3516E-06	-2.0038E-06
-1.1100E-08	2.5641E-08	-9.7217E-07	-1.1853E-06
1.6206E-08	1.9141E-08	3.6154E-07	6.4162E-07
5.0476E-08	-1.4759E-08	-5.6587E-08	-2.1223E-06
2.3884E-08	-2.2469E-08	5.8748E-07	-1.7971E-07
-4.2378E-09	-5.9112E-08	3.9236E-07	9.4772E-07
-2.8322E-08	-6.4364E-08	-1.6481E-06	-3.5604E-07
-8.8874E-08	-4.9931E-08	-9.1220E-07	1.0125E-06
-3.9391E-08	-6.1614E-08	1.5711E-06	7.1129E-07
-7.1375E-08	1.8364E-08	6.0963E-07	3.4492E-07
-3.7802E-08	9.4459E-09	1.3875E-06	2.0737E-06
4.9767E-08	3.6263E-08	-1.0358E-06	2.1327E-06
5.7212E-08	-2.5517E-08	3.1316E-07	2.1038E-06
-1.2592E-08	-5.7651E-08	-8.1408E-07	-4.0443E-07
-2.1994E-08	-4.8322E-08	-9.2167E-07	-3.6034E-08
-4.5588E-08	-8.4175E-08	-5.4264E-07	3.0548E-07
-9.0711E-08	-3.9799E-08	-4.9251E-07	-8.5068E-07
-1.0292E-07	-2.9395E-08	1.9202E-07	1.9191E-08
-1.0121E-07	1.2265E-09	1.4058E-07	-4.1530E-07
-7.9232E-08	3.9673E-08	1.6470E-07	8.6824E-08
-5.1484E-08	6.8062E-08	-5.6249E-08	-1.2644E-06
-6.2392E-08	6.5708E-08	-1.2237E-06	1.9800E-06
5.7862E-09	7.4724E-08	-2.2723E-07	1.8498E-06
-2.7075E-08	8.6889E-08	-2.0451E-07	1.1676E-06
-3.7966E-08	9.0778E-08	1.3601E-06	-1.0091E-06
2.3743E-08	9.1152E-08	-3.3828E-07	-3.9869E-07
1.6818E-08	7.8177E-08	-4.3372E-08	-5.1613E-07
2.0483E-08	4.1890E-08	-5.6169E-07	1.5370E-06
-2.0359E-08	2.1538E-08	4.3593E-08	-2.9279E-07
-1.2561E-08	-2.3323E-12	-1.3278E-06	-1.4643E-07
-1.9043E-08	4.0619E-08	-7.0052E-07	5.4136E-07
-9.1088E-08	3.4519E-08	5.1431E-07	1.3896E-07
-5.8692E-08	3.2166E-08	-1.6054E-06	-4.0672E-07
-8.0281E-09	8.7234E-08	1.6425E-06	3.2300E-07
-1.9434E-09	1.0041E-07	-6.6489E-07	2.9790E-07
1.0608E-08	8.1858E-08	7.2450E-07	4.3281E-08
5.5601E-08	1.1131E-07	1.2501E-06	6.7580E-08
5.9332E-08	8.4813E-09	1.7517E-07	-2.1363E-07
6.2834E-08	-5.1568E-08	2.1485E-07	7.9590E-07
4.3268E-08	-3.3754E-08	-5.6381E-07	2.4722E-07
-2.3721E-08	-1.6708E-08	3.7091E-07	5.6082E-08
-6.3434E-08	-2.0305E-08	-4.4893E-07	1.4698E-07
-6.5620E-08	5.4359E-08	-6.1945E-09	-1.3228E-06
-9.9847E-09	9.9469E-08	-7.8773E-07	-8.5655E-07
-1.5103E-08	6.4884E-08	-7.5195E-07	1.9324E-07
6.2938E-08	9.2394E-08	-6.7721E-07	1.2108E-07
7.9993E-09	1.8134E-08	4.8986E-07	1.1896E-06
4.8234E-08	-5.6506E-08	-4.1265E-07	2.4192E-07
4.6412E-08	-1.8685E-08	-1.3704E-06	9.2179E-07
5.9188E-09	2.5125E-08	5.2777E-07	-1.2613E-07
-1.9443E-08	2.9033E-08	5.8006E-07	5.5391E-07
-4.2623E-08	-7.2107E-09	-6.4108E-07	1.5166E-06
3.5426E-08	3.7520E-08	-3.6350E-07	-1.1821E-06
1.2829E-09	9.2004E-09	-7.3646E-07	7.2755E-07
-3.4830E-08	1.2724E-08	-4.3332E-07	-3.7141E-07
-3.6835E-08	3.4433E-08	-1.4682E-06	-3.3302E-07
-6.2795E-09	-6.6795E-08	-1.3408E-06	4.6407E-07
-7.1962E-08	-8.4039E-10	4.8536E-07	-3.6379E-07
-3.7389E-08	2.4539E-08	1.3910E-07	1.0757E-06
-6.1981E-08	4.2843E-08	-2.6660E-07	1.1386E-06
-6.7529E-08	5.3006E-08	-8.2584E-08	1.1399E-06
-2.3887E-08	4.8703E-08	2.3519E-06	1.4125E-06
1.5348E-08	7.7126E-08	-4.9325E-07	-4.1215E-07
-2.5910E-09	5.1291E-08	-1.0311E-06	1.0623E-06
-8.7018E-09	2.5167E-09	-1.3147E-07	2.3128E-07
-1.2067E-08	1.2528E-08	1.6012E-06	7.5755E-08
-4.1835E-08	3.6403E-08	-2.9606E-07	6.6439E-07
-6.4853E-08	6.7115E-08	7.7749E-07	1.4191E-08
-3.8217E-08	7.6696E-08	-1.1324E-06	-1.3084E-06
-4.3427E-08	6.0097E-08	1.2723E-07	-1.5092E-07
-1.6555E-08	7.6674E-08	2.6764E-07	5.9229E-07
-8.7452E-09	3.9207E-08	5.2616E-07	1.8824E-07
2.3532E-08	6.4061E-08	-7.5330E-07	8.8905E-07
3.4950E-08	5.9945E-08	-2.9049E-07	2.3664E-06
-2.1292E-08	7.1781E-08	7.3056E-07	-4.0618E-07
2.5508E-08	4.1503E-08	2.4516E-07	-3.6035E-07
-2.6077E-08	3.6445E-08	9.5097E-08	2.3374E-06
-2.4527E-08	3.8359E-08	1.1118E-06	2.5133E-08
1.0698E-08	6.9548E-08	-2.3419E-07	-6.8469E-08
-9.0151E-10	2.6178E-08	3.9588E-07	1.1991E-06
-3.0744E-08	7.5781E-08	5.7391E-07	8.4585E-07
-2.0994E-08	8.7820E-08	2.2067E-07	-8.9372E-07
-2.3947E-08	6.9078E-08	-7.0081E-07	9.4074E-07
-4.4011E-10	5.5104E-08	1.0563E-06	4.1891E-07
3.8293E-08	1.5942E-08	6.9194E-07	-1.1290E-06
1.2855E-08	6.8955E-08	-1.7120E-07	6.0152E-07
2.7257E-08	5.8891E-08	1.5651E-06	1.3316E-06
4.0875E-08	3.0247E-08	9.4411E-07	6.3687E-07
1.9923E-08	1.2810E-08	-3.7432E-07	-5.7613E-07
-4.4878E-09	1.7712E-08	1.7623E-06	2.7909E-06
1.3166E-08	2.5287E-08	-2.2815E-08	2.1473E-07
3.6094E-08	2.4186E-08	8.8063E-07	9.7043E-07
-5.3269E-08	-1.6314E-08	-7.0289E-07	1.1136E-06
5.9169E-09	2.1388E-08	-1.5183E-06	-6.2130E-07
5.5338E-09	5.8254E-08	1.1610E-06	1.2648E-06
-2.0021E-08	3.0877E-08	1.4973E-06	-1.0819E-06
3.0028E-09	3.2227E-08	-8.9112E-07	9.1809E-07
-1.7503E-08	4.1764E-08	3.7294E-07	-1.2629E-06
-4.5357E-08	2.1047E-08	-2.5274E-07	5.9857E-07
-2.9067E-08	3.9515E-08	2.4053E-07	8.0596E-07
-5.3844E-08	5.9188E-08	3.7934E-07	1.8876E-06
-6.1756E-08	1.7104E-08	9.7018E-07	7.4813E-07
1.4266E-08	4.8540E-08	1.1244E-06	2.1343E-07
-1.2797E-08	4.2195E-08	-1.1794E-08	-4.2209E-07
1.0912E-08	1.4751E-08	1.4066E-06	-4.1914E-07
-5.8008E-08	4.9186E-08	-1.1742E-06	-3.5451E-08
6.0278E-09	8.2512E-08	-5.9589E-07	1.4030E-06
-2.5935E-08	3.1314E-08	1.3359E-06	-1.0841E-06
-2.7846E-08	8.6557E-08	6.5387E-07	-8.9437E-07
-2.8052E-08	6.5950E-08	1.6042E-07	7.3575E-07
-1.7497E-08	6.7515E-08	1.2326E-07	-5.8925E-07
-1.3011E-08	-6.1337E-09	-3.3594E-07	4.6759E-07
1.9253E-08	7.7583E-08	-1.7513E-07	2.9853E-07
2.0727E-08	2.5626E-08	2.5147E-06	-1.8904E-06
-1.1453E-08	2.6042E-08	2.1218E-07	-7.6948E-08
1.4992E-08	2.9351E-08	1.6832E-06	1.4726E-07
-2.5111E-12	-2.8991E-08	3.0462E-07	-1.9317E-06
-3.1178E-08	7.7586E-08	1.1175E-06	-3.5728E-07
-7.5802E-08	7.0748E-08	5.2167E-07	-1.6929E-08
-3.1699E-08	7.6763E-08	-8.6218E-08	-1.0953E-06
1.0185E-08	6.6702E-08	-6.7128E-07	2.7084E-07
-4.7473E-10	7.6326E-08	-8.5353E-08	7.1553E-07
2.7612E-08	8.3100E-08	2.5362E-07	-4.9773E-07
4.5772E-08	5.8199E-08	1.2672E-07	1.0129E-06
6.7567E-08	2.9665E-08	1.3105E-06	6.1609E-07
3.4400E-08	1.6017E-08	8.4398E-07	1.0418E-06
3.0661E-09	3.6612E-09	-2.4737E-07	5.7624E-07
1.0477E-08	5.0182E-08	8.6669E-07	2.1126E-06
3.0444E-08	-1.5362E-08	1.0146E-06	-1.6994E-06
-4.8458E-08	2.3866E-08	-3.3159E-07	8.9306E-07
1.1270E-08	5.2101E-08	-6.0048E-07	8.0456E-07
1.9899E-08	4.7420E-08	6.3545E-07	3.9984E-07
1.9558E-08	-3.2547E-08	1.8512E-06	1.0228E-06
3.0139E-10	3.6073E-08	-2.0423E-06	-2.8793E-07
-1.8772E-08	1.8362E-08	1.7069E-06	9.8865E-07
-1.0033E-08	1.0770E-08	-1.6606E-06	8.5997E-07
-7.7625E-09	-8.4451E-09	2.0452E-08	1.5904E-07
-4.1701E-09	7.1440E-09	-3.8204E-07	8.3903E-07
-3.9155E-08	3.4588E-08	9.9879E-08	2.2056E-07
-7.8140E-09	4.5896E-08	3.9184E-07	-6.8894E-07
-4.5180E-08	2.3491E-08	-2.1240E-07	-1.8373E-06
-5.2837E-08	7.0633E-08	-4.8255E-07	2.2593E-06
-2.1980E-08	6.0071E-08	4.9966E-07	-2.4441E-06
-2.4206E-08	5.7209E-08	4.4567E-07	8.9746E-07
-3.6149E-08	6.3003E-08	2.8691E-07	5.9794E-07
-4.0098E-08	2.3231E-08	-1.6327E-07	3.5465E-07
2.8636E-08	2.9081E-08	3.5303E-07	1.1145E-06
1.6297E-08	2.1360E-08	-1.1666E-06	1.3578E-06
-2.9596E-08	6.4435E-08	-9.7612E-07	-1.9424E-06
-3.0247E-08	8.3444E-08	-1.9248E-07	1.4742E-06
2.3497E-08	6.0084E-08	1.4899E-08	4.9445E-07
-3.5329E-08	7.6888E-08	7.6432E-07	-2.2060E-07
1.4489E-08	3.3527E-08	-8.4639E-07	2.3306E-07
2.8674E-08	5.3725E-08	2.0225E-06	-7.5991E-07
1.7502E-08	2.4483E-08	4.5455E-07	-7.0944E-07
1.9475E-08	3.2132E-08	4.1386E-07	-8.9501E-07
