jMRUI Data Textfile

Filename: Export_to_jmrui.txt

PointsInDataset: 2048
DatasetsInFile: 1
SamplingInterval: 0.250000
ZeroOrderPhase: 0E0
BeginTime: 0E0
TransmitterFrequency: 1.2326E8
MagneticField: 2.8936E0
TypeOfNucleus:  
NameOfPatient:  
DateOfExperiment:  
Spectrometer:  
AdditionalInfo: 
SignalNames:  


Signal and FFT
sig(real)	sig(imag)	fft(real)	fft(imag)
Signal 1 out of 1 in file
5.0996E-07	1.2219E-08	7.0794E-07	-3.7319E-07
6.2966E-07	-5.7722E-08	2.5576E-06	1.4836E-06
4.4496E-07	-2.4710E-07	-1.3839E-06	-1.2823E-06
2.7169E-07	-3.0398E-07	1.3198E-06	2.6713E-07
2.0720E-08	-2.9592E-07	1.2780E-06	-9.4974E-07
-8.7166E-08	-1.5606E-07	-9.5281E-07	-6.9112E-07
-1.3582E-07	-6.7711E-08	-1.7357E-06	1.3276E-07
-5.2442E-08	3.6283E-08	3.8852E-08	-5.3121E-07
7.3502E-08	2.0592E-08	4.6261E-07	-4.9125E-07
1.9006E-07	4.3872E-09	1.5563E-06	-3.2488E-07
2.3683E-07	-7.0128E-08	-2.1833E-07	7.1121E-07
1.6276E-07	-1.8740E-07	3.6557E-07	1.3911E-06
8.7235E-08	-2.0400E-07	-5.9306E-07	4.3941E-07
-2.7981E-08	-1.4248E-07	1.3527E-06	-5.6772E-08
-7.8179E-08	-8.6948E-08	1.2125E-07	-2.4862E-07
-5.5720E-08	4.6860E-10	2.0711E-06	1.1432E-06
-1.9128E-08	8.0438E-08	-5.8300E-07	-3.3046E-07
1.3715E-08	5.1027E-08	9.3593E-08	-9.9614E-07
5.9441E-08	-6.3561E-09	9.3494E-08	8.6611E-07
2.3404E-08	-6.7142E-08	-2.1895E-07	1.2184E-06
-2.7114E-08	-1.2000E-07	1.8940E-07	-1.6427E-06
-7.6801E-08	-7.1186E-08	3.9097E-07	-2.0098E-08
-1.1054E-07	-2.8856E-08	-1.2594E-07	3.1967E-07
-1.0678E-07	4.9118E-08	-9.5210E-07	-1.8866E-06
-5.6096E-08	7.1632E-08	-4.2589E-07	6.5010E-07
3.1219E-09	9.9461E-08	8.8437E-07	-5.3937E-07
6.8763E-08	5.9757E-08	-1.1853E-07	-2.2373E-06
8.7732E-08	-3.9121E-09	-1.3918E-06	-7.9009E-08
7.3896E-08	-4.2846E-08	1.5971E-07	1.1385E-06
-4.2634E-09	-3.6362E-08	6.9887E-07	3.0737E-07
-9.6879E-08	-4.7719E-08	-3.9063E-07	-7.2614E-08
-1.0957E-07	2.4418E-08	6.5036E-07	5.9080E-07
-6.6708E-08	8.7756E-08	-4.1772E-08	2.7990E-07
-3.4211E-08	1.4476E-07	7.9662E-08	4.4670E-07
1.1936E-08	1.4969E-07	1.5653E-07	1.0981E-06
1.0183E-07	8.4421E-08	5.8738E-07	5.3808E-07
1.1455E-07	3.7599E-08	1.4657E-06	4.4359E-08
8.5548E-08	1.0034E-08	4.4343E-07	-1.5927E-06
7.0104E-08	2.7937E-08	2.2401E-08	-5.2878E-07
6.6305E-08	-6.1137E-09	4.3426E-07	-3.6446E-07
4.6887E-08	4.3618E-08	7.9188E-07	5.4426E-08
4.8239E-08	4.5873E-08	-6.0120E-07	-7.5316E-07
6.5119E-08	5.2875E-09	1.0130E-07	1.4271E-07
6.4466E-08	2.4209E-09	-5.0838E-07	2.6068E-07
9.9817E-08	-6.1375E-08	-1.4621E-06	-1.1678E-07
1.1203E-07	-8.7388E-08	1.8016E-06	-2.4561E-07
5.7417E-08	-3.8751E-08	2.9529E-07	-1.8093E-08
1.4467E-08	-7.8580E-08	-2.0613E-07	8.6958E-07
1.5228E-08	-6.2081E-08	-1.1629E-06	-9.2712E-07
-1.5370E-08	1.3554E-08	3.7114E-07	9.2039E-07
5.2670E-09	-2.0200E-09	9.5150E-07	-1.1769E-06
6.0681E-08	-1.5286E-08	-1.5461E-06	9.0766E-07
8.2762E-08	1.6421E-08	6.4108E-07	-6.0471E-07
3.5182E-08	-2.8341E-08	1.0541E-06	-2.9409E-07
2.0048E-09	-1.4635E-08	6.6315E-07	7.5916E-07
5.8007E-09	-3.3884E-08	2.9438E-08	-5.9494E-07
-1.0428E-08	-9.3620E-08	2.5194E-07	5.8014E-08
-4.5057E-08	-2.0402E-08	1.3925E-06	5.6759E-07
-2.3293E-08	-3.3089E-09	-1.1939E-06	7.3581E-07
-5.8346E-08	3.5434E-08	-1.5574E-07	3.2340E-07
-5.2736E-08	1.0107E-12	1.3555E-06	6.8014E-07
3.5686E-08	3.1606E-08	-9.8939E-07	-7.6268E-08
1.7586E-08	-2.8699E-08	4.6312E-08	1.1676E-06
-9.6689E-09	-6.8198E-08	2.3372E-06	1.4943E-06
2.1298E-09	-2.9613E-08	1.0394E-06	4.4612E-07
-8.4141E-08	-6.1415E-08	2.0778E-06	-9.7975E-07
-7.2131E-08	9.9011E-09	-3.1793E-07	-1.2709E-06
-1.0577E-07	8.4393E-10	-1.2740E-06	5.5714E-07
-1.0577E-07	1.1095E-08	-2.6346E-07	1.1871E-06
-9.3592E-08	4.1550E-08	1.3824E-07	-1.1608E-06
-5.6487E-08	1.0428E-07	-5.2824E-07	5.2291E-07
-8.9921E-09	8.4292E-08	-6.5484E-07	-1.8285E-07
-4.4725E-08	8.3417E-08	-2.8127E-07	1.5750E-07
1.3488E-09	1.0228E-07	7.7125E-07	3.2085E-07
3.5576E-08	4.6056E-08	1.4254E-06	2.3460E-07
1.3157E-08	3.6592E-08	1.6992E-06	-3.9581E-07
2.1026E-08	5.4225E-08	1.1290E-06	-6.4709E-07
2.1475E-08	1.4134E-08	-7.5595E-07	-1.8061E-06
-4.1343E-08	-7.3957E-09	-2.4048E-06	-1.8446E-07
-2.6513E-08	7.6066E-10	-9.3436E-08	-4.3216E-07
-5.9509E-08	4.3452E-08	1.9074E-06	5.1056E-07
-5.7493E-08	5.1355E-08	6.7451E-07	1.3179E-07
-2.6015E-08	7.0449E-08	-4.5531E-07	1.2145E-06
-1.5699E-08	6.7132E-08	-1.2448E-06	1.3305E-06
2.8271E-08	3.1635E-08	9.0661E-07	2.7581E-06
4.7630E-08	1.1286E-07	2.4871E-07	-2.7727E-07
6.9881E-08	2.5509E-09	2.4874E-07	7.1051E-07
4.1312E-08	-3.0605E-08	-5.4317E-07	-6.8143E-07
7.3853E-09	-4.4266E-08	-6.1080E-07	1.7931E-06
-7.1175E-09	-2.9796E-08	-9.1289E-08	9.8956E-07
-8.1533E-09	-3.4280E-08	-7.0778E-07	4.6164E-07
-4.1659E-08	8.5255E-09	-1.9481E-08	1.5946E-06
-3.5189E-08	7.2449E-08	7.9707E-08	-7.6066E-07
-8.6089E-10	7.5430E-08	1.1031E-06	-1.7561E-06
2.3740E-08	6.1687E-08	4.7286E-07	4.6023E-07
8.1254E-09	3.0138E-08	6.6873E-07	2.3377E-07
2.4340E-08	4.5976E-09	-1.0038E-06	1.5302E-07
-1.1706E-08	-1.0015E-08	1.7516E-06	-9.3267E-07
1.7783E-08	-3.7261E-08	-8.9622E-07	2.6315E-06
-4.4599E-09	-1.9642E-08	-7.5616E-07	-1.6210E-06
3.1093E-09	-5.1811E-09	-3.3782E-07	-8.6687E-08
-4.9840E-08	2.3442E-08	1.8787E-07	9.0997E-07
-2.2629E-10	-3.8930E-08	6.8331E-08	1.1744E-06
1.3453E-08	4.6184E-08	-2.1624E-06	-1.1067E-06
-2.2469E-09	-1.6915E-08	4.5751E-07	8.6068E-07
-2.8289E-08	6.7079E-10	6.4290E-07	-4.8899E-07
-2.1284E-08	-2.6949E-08	-6.9150E-07	7.6709E-07
-7.7141E-08	1.4799E-08	2.1915E-07	2.0023E-07
-3.3077E-08	3.9303E-08	-1.0356E-08	-1.2931E-06
-9.3218E-09	5.2670E-08	-1.2881E-07	9.5657E-07
-4.4288E-08	5.5860E-08	4.6403E-08	1.3844E-08
-4.7133E-09	3.3248E-08	-1.2455E-06	5.5105E-07
5.9449E-09	1.3635E-08	-5.7926E-07	1.3243E-06
-2.4136E-08	4.5668E-08	1.0834E-07	1.6822E-07
-7.7087E-09	-1.0141E-08	4.0738E-07	-9.8796E-07
-7.9692E-08	3.7704E-08	-1.2397E-06	3.0180E-07
5.8034E-09	2.9724E-08	-1.0456E-07	-9.7640E-07
-4.3575E-08	4.5393E-08	-2.3565E-07	2.1996E-06
-6.0048E-08	8.5620E-08	-1.0597E-06	3.1215E-07
-2.4311E-08	6.6057E-08	1.3136E-06	-1.8695E-07
-5.8951E-08	8.6445E-08	2.2708E-06	9.6075E-07
3.3533E-08	6.0650E-08	-1.6747E-06	-1.7412E-07
2.4095E-08	4.2054E-08	-4.8383E-07	9.3231E-07
7.3719E-09	1.1930E-08	8.0014E-08	8.0821E-07
-2.5271E-08	4.5659E-08	-5.1786E-07	1.1682E-06
-4.4486E-08	1.6596E-08	-2.9372E-07	-7.9998E-07
2.3562E-08	7.2512E-09	6.6936E-08	-8.8735E-07
-4.9349E-08	4.7894E-08	-1.0847E-08	-3.2981E-07
-5.8733E-08	3.0365E-08	-1.8610E-07	5.5080E-07
-1.4993E-08	3.5293E-08	1.1264E-06	1.2628E-06
-2.1298E-08	7.2608E-08	6.2906E-07	-1.6391E-06
-1.9044E-08	5.4696E-08	2.1397E-07	-4.8614E-07
-4.3930E-08	4.3379E-08	-8.3488E-07	8.9149E-07
-1.1047E-08	5.4207E-08	3.9489E-08	-1.5605E-07
1.4393E-08	7.1237E-08	7.7083E-07	9.2700E-07
5.2707E-08	2.2305E-09	3.9802E-07	-1.3628E-06
7.7683E-08	2.4160E-08	1.2422E-06	5.2603E-07
2.7100E-08	-4.6663E-09	5.2295E-07	1.5840E-06
3.6688E-08	2.9053E-08	1.4766E-06	2.5000E-07
1.4362E-08	-4.3929E-08	4.7077E-07	-1.1257E-06
6.8889E-09	1.9238E-08	9.2701E-07	5.9568E-07
-2.5172E-08	9.2368E-09	-8.2744E-07	-4.6360E-07
-1.5874E-08	1.8312E-09	6.7310E-08	3.2389E-07
-1.7479E-09	2.2304E-08	-9.8535E-07	-8.0535E-07
-2.4523E-08	-5.8970E-09	1.0341E-06	1.6815E-06
-4.0533E-08	1.2582E-09	9.2383E-07	-7.2039E-08
-4.8449E-08	5.9392E-09	1.3099E-08	-2.8549E-07
-2.4872E-08	5.9351E-08	-3.4402E-07	-2.6722E-07
-5.9056E-09	3.3312E-08	-1.4509E-06	1.5368E-06
-4.5924E-08	4.8006E-08	-5.9953E-07	-3.4275E-09
-9.2962E-08	4.3121E-08	-1.3568E-06	1.7402E-06
-2.1594E-08	3.9767E-08	5.2439E-07	-1.6838E-07
-1.4295E-08	1.8356E-08	2.2034E-06	2.1503E-06
-1.6529E-08	4.7626E-08	-9.7989E-07	-3.1057E-07
-9.3286E-09	4.5801E-08	-4.7947E-07	1.6312E-07
-1.3533E-08	3.8757E-08	1.0180E-06	1.9401E-06
8.0857E-09	5.4839E-08	-1.2685E-06	7.3165E-07
2.3242E-08	5.3697E-08	3.4684E-07	6.8704E-07
2.5666E-08	1.9346E-08	5.0069E-07	4.6681E-07
-3.0488E-08	4.5346E-08	-7.3607E-07	1.3517E-07
-4.6893E-09	2.3582E-08	-5.0022E-07	7.9591E-08
9.2944E-09	3.5439E-08	1.0859E-06	1.1572E-06
2.5355E-08	1.5767E-08	9.6682E-07	5.1083E-07
-2.2381E-08	2.2240E-08	2.0548E-07	-6.8552E-07
-1.9001E-08	3.8508E-08	3.6794E-07	-5.1312E-07
6.1066E-09	5.8811E-09	5.2664E-07	-1.4990E-07
5.1864E-08	8.4395E-08	3.8260E-07	1.0738E-06
-4.6146E-08	5.1012E-08	9.1625E-07	-1.3936E-06
-3.1349E-08	7.4139E-08	-4.9118E-07	7.5157E-07
7.5081E-09	1.4678E-07	1.9345E-07	-1.8816E-06
4.2661E-08	6.6449E-08	-9.2452E-07	1.1625E-06
4.3948E-08	4.2927E-08	-4.5360E-07	1.3406E-06
2.3077E-08	3.4975E-08	-1.9877E-07	1.6478E-06
5.4942E-08	2.8424E-08	-7.5810E-07	1.3298E-06
3.5093E-08	-1.7492E-09	3.8272E-07	6.3974E-07
4.6265E-08	-9.2956E-09	-9.1183E-07	-4.5593E-07
2.2821E-08	4.9425E-08	2.0033E-06	-9.2168E-07
1.5599E-08	8.3193E-09	-3.9788E-07	-1.1811E-06
-1.3751E-08	3.7737E-08	5.4107E-07	1.4892E-06
1.3193E-08	4.1926E-08	-8.4871E-07	-1.1022E-06
9.1845E-10	3.4042E-08	6.9313E-08	-4.9238E-09
2.3247E-08	7.4514E-09	-9.4720E-07	1.3665E-06
4.8760E-10	1.6619E-08	6.2357E-07	-1.0929E-07
1.3126E-08	2.9978E-09	9.7375E-07	-1.6143E-06
2.5983E-09	1.0153E-08	-1.2668E-06	-6.3393E-07
-6.6619E-09	2.6681E-08	-5.6648E-08	7.2548E-07
1.7161E-08	-1.7438E-08	1.2347E-06	3.2681E-07
-6.6145E-08	-5.2419E-09	5.6869E-07	-3.7427E-07
-7.4136E-08	1.4261E-08	-2.5062E-07	2.0674E-06
-6.4950E-08	2.0321E-08	-1.0130E-06	2.3107E-07
-5.5727E-08	4.9370E-08	1.8706E-06	1.2654E-07
-2.8345E-08	5.7180E-08	1.6581E-06	3.2788E-07
7.1526E-09	6.0237E-08	1.1395E-06	1.0458E-07
-1.0498E-08	2.6008E-08	2.9720E-07	2.3797E-07
-3.0083E-09	4.2334E-08	1.6629E-07	1.8962E-06
-1.4249E-08	3.5290E-08	1.0591E-06	2.1675E-07
-2.2738E-08	5.7730E-08	9.1927E-07	-1.2760E-06
5.3031E-09	3.0751E-08	-1.2493E-06	-5.3272E-07
2.7063E-08	6.6429E-08	9.4387E-07	1.4123E-06
7.3278E-09	4.5688E-08	-1.6959E-06	4.3669E-07
1.7179E-08	3.1708E-08	1.2793E-06	-1.7658E-06
6.1782E-09	3.4732E-08	-9.6715E-07	-5.7081E-07
-5.6490E-08	2.4705E-08	-9.2144E-07	-1.1904E-06
6.5382E-08	-9.6587E-09	-1.0270E-06	7.3258E-07
-3.9878E-08	6.2706E-08	-5.4723E-07	-8.2947E-08
