jMRUI Data Textfile

Filename: Export_to_jmrui.txt

PointsInDataset: 2048
DatasetsInFile: 1
SamplingInterval: 0.250000
ZeroOrderPhase: 0E0
BeginTime: 0E0
TransmitterFrequency: 1.2326E8
MagneticField: 2.8936E0
TypeOfNucleus:  
NameOfPatient:  
DateOfExperiment:  
Spectrometer:  
AdditionalInfo: 
SignalNames:  


Signal and FFT
sig(real)	sig(imag)	fft(real)	fft(imag)
Signal 1 out of 1 in file
4.2942E-06	2.2087E-07	-1.3699E-06	1.3774E-06
6.2533E-06	-1.3833E-06	-1.0100E-06	1.1943E-06
4.1530E-06	-3.0878E-06	-1.2138E-06	4.2100E-07
2.3277E-06	-3.9653E-06	-1.7099E-06	1.5510E-06
-3.9786E-07	-3.9154E-06	-4.1307E-07	9.9011E-07
-2.0983E-06	-2.6466E-06	-1.6156E-06	1.0514E-06
-3.0478E-06	-9.5510E-07	-3.7878E-07	1.2497E-06
-2.2940E-06	4.8788E-07	-1.9163E-06	9.1912E-07
-1.1056E-06	1.2107E-06	-1.2875E-07	2.7123E-06
2.8757E-07	1.1322E-06	1.1584E-07	1.0245E-07
1.0044E-06	5.4419E-07	-1.4411E-06	1.2086E-06
1.4463E-06	-1.6192E-07	-4.0293E-07	1.6149E-06
1.0683E-06	-8.7210E-07	-1.1804E-07	9.9526E-07
5.7121E-07	-1.2450E-06	-1.0060E-06	6.5951E-07
-1.8279E-07	-1.2556E-06	-7.5110E-07	1.7199E-06
-6.0191E-07	-1.0121E-06	-4.9919E-07	8.6583E-07
-9.0725E-07	-7.0596E-07	-1.2502E-06	1.6000E-06
-7.8845E-07	-4.0023E-07	-4.9850E-07	1.9206E-06
-8.0200E-07	-1.4794E-07	-5.1427E-07	1.7958E-06
-7.8163E-07	-4.2871E-08	-2.5014E-07	2.3744E-06
-8.2824E-07	1.4742E-07	1.0428E-06	1.8359E-06
-7.5620E-07	3.2247E-07	-3.2166E-08	7.2503E-07
-6.9609E-07	5.5257E-07	3.0536E-07	1.9646E-06
-4.4433E-07	6.4819E-07	7.3019E-07	3.1989E-07
-1.9509E-07	6.2915E-07	-6.7771E-07	7.9349E-07
2.0978E-07	4.0087E-07	-4.1514E-07	1.0280E-06
2.5186E-07	1.1649E-07	-7.3981E-07	1.4652E-06
2.5346E-07	-1.6763E-07	-6.9976E-07	1.6389E-06
-3.9032E-08	-2.9366E-07	-1.6676E-07	2.8949E-06
-3.4534E-07	-2.1669E-07	1.2376E-06	1.2410E-06
-6.4984E-07	7.4132E-08	-9.5524E-07	1.6669E-06
-6.0758E-07	5.0099E-07	1.3576E-06	2.9196E-06
-4.7660E-07	7.6796E-07	1.2709E-06	8.8202E-07
-1.2056E-07	9.2931E-07	1.1998E-06	9.6761E-07
1.5656E-07	8.1356E-07	-1.1233E-07	-9.3788E-08
4.9148E-07	5.9271E-07	-1.5587E-07	2.1922E-06
5.4338E-07	3.2177E-07	1.1792E-06	4.7606E-07
5.4050E-07	1.2433E-07	-8.6398E-07	1.3941E-06
3.8048E-07	4.1226E-08	1.5929E-06	2.0210E-06
3.3569E-07	2.4366E-09	6.5528E-07	-6.6284E-08
2.9801E-07	4.0803E-08	1.8280E-07	1.2214E-06
2.9938E-07	-4.3984E-08	8.0704E-07	3.4042E-07
3.0587E-07	-1.1339E-07	-2.8342E-07	4.1640E-07
3.2534E-07	-3.4587E-07	3.5525E-08	7.3486E-07
1.4262E-07	-4.4679E-07	-5.8779E-07	5.2890E-07
-2.4173E-08	-4.3041E-07	-5.4842E-07	1.3656E-06
-2.0544E-07	-4.1643E-07	-4.9719E-07	1.2170E-06
-3.0643E-07	-1.8701E-07	-3.8018E-07	2.1593E-06
-3.4042E-07	3.5981E-08	6.8881E-07	1.6319E-06
-1.3715E-07	1.9278E-07	2.1585E-07	1.2769E-06
5.4773E-08	1.8343E-07	3.3833E-07	1.1328E-06
2.1099E-07	5.0651E-08	-3.3240E-07	1.2971E-06
2.0161E-07	-1.5161E-07	2.1080E-07	2.0147E-06
-4.2691E-09	-3.0133E-07	8.8417E-07	1.6020E-06
-2.0377E-07	-3.5406E-07	7.9807E-07	8.4434E-07
-3.7029E-07	-2.5264E-07	3.1740E-07	6.7323E-07
-4.5074E-07	-6.6984E-08	-4.3891E-07	3.8245E-07
-3.7143E-07	1.5888E-07	-1.1633E-06	1.9815E-06
-2.0011E-07	2.5389E-07	4.8129E-07	2.3097E-06
2.9518E-08	2.0992E-07	3.2843E-07	1.8136E-06
1.7029E-07	8.9358E-08	9.4911E-07	1.9116E-06
1.6484E-07	-4.2687E-08	1.0572E-06	1.2118E-06
9.4796E-09	-1.6166E-07	5.4666E-07	6.3426E-07
-1.4678E-07	-1.5251E-07	3.8933E-08	1.5865E-06
-2.7647E-07	-4.5601E-08	1.2878E-06	8.9068E-07
-3.2744E-07	1.3081E-07	-3.1445E-07	3.5011E-07
-2.5601E-07	2.6141E-07	-2.3027E-07	1.2682E-06
-7.7360E-08	2.7187E-07	-2.2018E-07	1.9268E-06
6.0315E-08	2.4521E-07	1.4074E-06	1.0818E-06
9.1538E-08	7.7033E-08	-1.0565E-06	1.3626E-07
1.7977E-09	-3.6005E-08	-4.6286E-07	2.5213E-06
-1.0571E-07	-7.4912E-08	3.7284E-07	1.8076E-06
-1.9026E-07	-6.8201E-08	6.7695E-07	1.4760E-06
-2.6899E-07	8.8285E-08	-5.4351E-07	1.4664E-06
-2.0236E-07	2.3320E-07	1.2814E-06	2.6539E-06
-7.4036E-08	3.1600E-07	9.6348E-07	9.5602E-09
6.5170E-08	3.0195E-07	-5.8019E-07	7.9115E-07
2.1248E-07	1.8031E-07	-1.5823E-06	1.6357E-06
2.0086E-07	8.9994E-08	4.0923E-07	4.2154E-06
1.2092E-07	-4.7307E-08	2.0959E-06	1.1815E-06
4.2256E-08	-1.0282E-07	1.0773E-07	1.5450E-06
-1.0898E-07	-2.4086E-08	1.2924E-06	1.5475E-06
-2.0885E-07	1.0849E-07	3.9990E-07	7.7275E-07
-6.4199E-08	2.0607E-07	9.5935E-08	1.6633E-06
3.4247E-08	2.6531E-07	1.1789E-06	1.3113E-06
2.1932E-07	2.4688E-07	-3.1017E-07	2.8091E-07
2.6683E-07	3.2510E-08	-3.2611E-07	2.1390E-06
2.6264E-07	-1.1919E-07	2.6019E-07	1.2244E-06
8.4432E-08	-2.7123E-07	-3.2398E-07	1.9230E-06
-3.5771E-08	-2.8364E-07	-1.3917E-07	1.9824E-06
-2.1258E-07	-1.8413E-07	8.4042E-07	2.9586E-06
-1.8432E-07	-3.2556E-08	1.3176E-06	4.1109E-07
-1.3765E-07	1.8571E-07	-1.3574E-06	1.6162E-06
3.0229E-08	2.7016E-07	1.5492E-07	3.0627E-06
2.0534E-07	2.4372E-07	1.0884E-06	3.0807E-06
2.8521E-07	1.5279E-07	2.1501E-06	1.3014E-06
2.9558E-07	-7.3802E-08	-1.7425E-07	1.1675E-06
2.2640E-07	-1.9474E-07	1.3099E-06	2.5315E-06
9.9274E-08	-3.0026E-07	1.1217E-06	5.8472E-07
7.5682E-10	-2.9313E-07	3.7522E-08	1.4752E-06
-1.7375E-07	-2.4857E-07	5.7635E-07	1.3217E-06
-1.7299E-07	-1.7666E-07	-4.4201E-07	1.4872E-06
-1.7917E-07	-6.2708E-08	1.7289E-07	2.6435E-06
-1.7990E-07	-6.0121E-09	7.6500E-07	2.1110E-06
-1.8291E-07	6.0777E-09	7.7388E-07	2.1189E-06
-1.1124E-07	1.7323E-08	6.5746E-07	1.5885E-06
-1.6311E-07	1.9968E-08	3.6996E-08	2.3608E-06
-1.4110E-07	8.4846E-08	1.0601E-06	2.8178E-06
-2.7389E-08	1.2229E-07	1.5033E-06	2.3008E-06
2.1388E-08	1.5650E-07	1.5925E-06	1.7153E-06
7.4024E-08	1.2057E-07	9.0693E-07	1.6483E-06
1.0357E-07	5.0292E-09	1.5094E-06	2.3779E-06
1.2239E-07	-5.8788E-08	2.1102E-06	1.0212E-06
8.6389E-08	-1.7309E-07	5.7850E-07	1.0587E-06
-8.7400E-08	-1.1845E-07	1.5807E-06	1.9528E-06
-1.8313E-07	-7.9292E-08	1.5842E-06	5.9002E-07
-2.2846E-07	1.2378E-08	9.8983E-07	9.1253E-07
-1.3957E-07	6.1436E-08	1.0946E-06	2.5033E-07
-8.9913E-08	2.0164E-07	-4.5691E-07	1.6286E-07
2.6290E-08	1.8002E-07	-7.9010E-07	2.0855E-06
1.3812E-07	8.2809E-08	9.4673E-07	2.1172E-06
1.8662E-07	-8.6291E-09	1.5117E-07	1.4528E-06
1.4263E-07	-5.2757E-08	9.9272E-07	2.2246E-06
4.5306E-08	-1.0822E-07	3.1658E-07	9.7711E-07
-5.0275E-08	-1.8557E-07	3.6178E-07	2.9261E-06
-7.8697E-08	-4.5819E-08	1.8030E-06	1.5209E-06
-8.9094E-08	4.7422E-08	6.8969E-07	1.5331E-06
-8.4308E-08	1.1902E-07	1.1583E-06	1.4206E-06
2.2194E-08	1.4960E-07	7.8615E-07	1.5918E-06
8.4758E-08	6.7034E-08	1.1435E-06	1.2216E-06
1.4128E-07	5.5836E-08	7.2511E-07	1.6406E-06
9.0667E-08	-2.6791E-08	1.7164E-06	8.8521E-07
1.9764E-08	-4.8107E-09	1.7985E-09	2.9087E-07
6.6163E-08	-5.2019E-08	7.8332E-08	1.7401E-06
1.8888E-08	-1.9496E-08	9.6007E-07	1.4632E-06
4.8297E-08	-1.8497E-09	5.2611E-07	2.0924E-07
4.9693E-08	1.7939E-08	-1.6175E-06	1.5365E-06
1.7657E-07	-3.5049E-08	1.0986E-06	3.5735E-06
9.4604E-08	-6.2140E-08	1.5961E-06	1.9864E-07
1.2371E-07	-1.2309E-07	-8.9464E-07	1.1986E-06
5.7499E-08	-1.9695E-07	-1.6006E-07	2.0773E-06
-3.3047E-08	-1.6136E-07	1.9824E-07	2.9936E-06
-1.0676E-07	-7.4161E-08	1.7754E-06	1.5813E-06
-1.3623E-07	-3.3950E-08	-3.4576E-07	1.5871E-06
-1.3429E-07	2.2682E-08	1.4911E-06	2.3385E-06
-3.9664E-08	9.0572E-08	3.0929E-07	1.0257E-06
-4.9794E-09	4.6980E-08	9.1355E-07	1.7550E-06
6.4814E-08	2.7845E-08	-7.1340E-07	1.2378E-06
9.6985E-08	-3.3845E-08	1.1319E-06	3.2833E-06
8.6232E-08	-1.4018E-07	4.7298E-07	7.2652E-07
1.9421E-08	-1.3548E-07	9.0703E-07	3.2735E-06
-4.2515E-08	-9.9848E-08	1.4171E-06	-2.6501E-07
-6.6250E-08	-8.8810E-08	-1.3420E-06	2.2517E-06
-5.2933E-08	-4.8784E-08	6.0955E-07	2.1508E-06
-1.0424E-07	8.3540E-09	2.0773E-07	3.3643E-06
-3.0464E-08	5.3448E-08	2.3280E-06	1.3764E-06
-3.1460E-08	5.8121E-08	-5.6557E-07	1.6209E-06
-1.1181E-08	4.9889E-08	1.3707E-06	2.3829E-06
2.0074E-08	1.1161E-08	5.9484E-08	1.6750E-06
8.6871E-08	-3.5537E-08	1.0137E-06	2.7274E-06
7.4428E-08	-5.2919E-08	1.1957E-06	2.0986E-06
6.3971E-08	-7.2889E-08	1.5334E-06	1.4593E-06
2.2845E-08	-5.4146E-08	2.3244E-07	1.5608E-06
1.2496E-08	-7.2641E-08	1.4289E-06	2.0933E-06
-3.8172E-08	-3.5605E-08	6.0616E-07	8.4187E-07
-6.7199E-08	-4.0548E-08	6.1498E-08	2.0146E-06
-6.7066E-08	1.1451E-08	8.0095E-07	2.2376E-06
-9.7275E-08	4.0310E-08	9.4794E-07	1.7999E-06
-9.8419E-09	6.7934E-08	9.0653E-07	2.0543E-06
6.9850E-09	3.7344E-08	1.4764E-06	1.3106E-06
5.2113E-08	5.9610E-08	3.8332E-07	8.2013E-07
1.1190E-07	2.2397E-08	-3.7906E-07	1.4718E-06
1.4622E-07	-3.4596E-09	2.5773E-07	3.0409E-06
8.7118E-08	-1.1381E-08	1.8718E-06	1.3725E-06
1.2141E-07	-5.0417E-08	-3.4609E-07	9.8914E-07
6.3632E-08	-3.5692E-08	5.5233E-08	2.0895E-06
3.1843E-08	-5.3823E-08	-1.2395E-07	2.6804E-06
4.4648E-08	-7.6944E-08	1.7343E-06	2.4537E-06
3.1309E-08	-6.4219E-08	4.5386E-07	1.0840E-06
5.0904E-08	-5.3596E-08	5.2734E-07	1.7860E-06
6.8880E-08	-6.6535E-08	-6.5092E-07	1.6330E-06
4.8535E-08	-9.1726E-08	5.8836E-07	3.5280E-06
3.8080E-08	-1.4353E-07	1.3297E-06	1.4694E-06
2.2276E-08	-5.0898E-08	-1.0398E-07	1.8525E-06
3.1977E-08	-7.0331E-08	-1.7807E-08	2.4421E-06
5.7844E-08	-4.8786E-08	4.7131E-07	3.2553E-06
-1.7434E-08	-5.9477E-08	1.5561E-06	2.6146E-06
1.4588E-08	-1.0137E-07	1.0492E-06	1.9088E-06
-5.6962E-10	-4.6499E-08	9.2005E-07	2.2380E-06
-2.4433E-08	-8.6995E-09	1.0665E-06	1.7031E-06
-2.2618E-08	-3.2933E-08	5.2298E-08	2.2380E-06
-5.9418E-08	-4.1595E-08	1.6814E-06	2.9952E-06
-2.0764E-08	-3.7105E-08	1.5227E-06	7.9510E-07
-5.6627E-08	-3.1054E-08	-1.8162E-07	1.7317E-06
3.9567E-08	-1.3872E-08	9.8094E-07	2.3170E-06
-2.6235E-08	9.5316E-09	4.1732E-07	1.2065E-06
-2.7424E-08	1.3070E-09	-4.2660E-07	2.7185E-06
-1.9000E-08	-4.9026E-08	1.5437E-06	2.7939E-06
4.1519E-08	-4.9790E-08	6.4777E-07	1.1380E-06
-2.4993E-08	-1.8797E-08	-3.1730E-07	2.3429E-06
-1.0794E-08	-2.0604E-08	3.7484E-07	3.0004E-06
-1.4111E-08	-4.2078E-08	1.1041E-06	2.8597E-06
-1.2634E-08	8.0143E-09	1.1670E-06	2.3168E-06
2.4564E-08	3.1971E-09	9.9286E-07	1.8853E-06
3.6571E-08	4.3816E-08	-1.2522E-07	2.3573E-06
1.9363E-08	-4.9190E-09	1.3128E-06	3.6483E-06
