jMRUI Data Textfile

Filename: Export_to_jmrui.txt

PointsInDataset: 2048
DatasetsInFile: 1
SamplingInterval: 0.250000
ZeroOrderPhase: 0E0
BeginTime: 0E0
TransmitterFrequency: 1.2326E8
MagneticField: 2.8936E0
TypeOfNucleus:  
NameOfPatient:  
DateOfExperiment:  
Spectrometer:  
AdditionalInfo: 
SignalNames:  


Signal and FFT
sig(real)	sig(imag)	fft(real)	fft(imag)
Signal 1 out of 1 in file
4.9279E-06	2.4795E-07	-3.3263E-06	2.3341E-06
8.1809E-06	-1.7039E-06	-1.9517E-06	2.8388E-06
5.4818E-06	-3.8345E-06	-1.6301E-06	1.1800E-06
3.1899E-06	-5.0413E-06	-2.5707E-06	2.0489E-06
-3.8285E-07	-4.9456E-06	-1.2343E-06	2.1622E-06
-2.7124E-06	-3.5048E-06	-1.4997E-06	1.2379E-06
-3.9064E-06	-1.1909E-06	-1.9269E-06	1.7613E-06
-2.9059E-06	6.3070E-07	-1.1590E-06	1.7578E-06
-1.4801E-06	1.5256E-06	-1.6166E-06	1.1688E-06
4.4223E-07	1.3630E-06	-1.7301E-06	1.6531E-06
1.4144E-06	6.3677E-07	-1.8113E-06	1.7439E-06
1.9061E-06	-3.2345E-07	-1.1955E-06	2.2535E-06
1.3567E-06	-1.0864E-06	-8.3063E-07	1.3759E-06
6.7853E-07	-1.5786E-06	-1.2960E-06	1.0452E-06
-3.5648E-07	-1.5835E-06	-2.2831E-06	9.6212E-07
-8.2353E-07	-1.2660E-06	-2.5297E-06	2.6860E-06
-1.2458E-06	-8.0979E-07	-8.3364E-07	2.7786E-06
-1.0705E-06	-4.0213E-07	-1.0685E-06	1.7643E-06
-1.0395E-06	-1.6633E-07	-1.3665E-06	2.4328E-06
-9.3033E-07	6.1020E-08	-5.1690E-07	2.3058E-06
-9.8684E-07	2.6337E-07	-5.9858E-07	1.7387E-06
-8.7692E-07	4.6832E-07	-1.0484E-06	1.2692E-06
-7.8914E-07	6.8502E-07	-1.9001E-06	2.3862E-06
-4.6692E-07	7.6012E-07	-7.1754E-08	2.6031E-06
-1.5687E-07	7.1522E-07	-1.0217E-06	1.2681E-06
2.3231E-07	4.3198E-07	-9.7307E-07	2.4204E-06
3.7515E-07	8.3506E-08	-7.9161E-07	1.6118E-06
2.7573E-07	-2.7401E-07	-1.4776E-06	2.0542E-06
-1.2007E-07	-4.5071E-07	-1.4694E-06	2.9631E-06
-4.9266E-07	-2.9023E-07	1.8878E-07	3.1349E-06
-8.2270E-07	1.2759E-07	-6.1202E-07	1.7220E-06
-7.8468E-07	6.2127E-07	-3.4744E-07	3.2693E-06
-6.6946E-07	1.0122E-06	3.1082E-07	1.9412E-06
-1.8239E-07	1.1503E-06	1.6952E-07	2.6202E-06
2.0500E-07	9.9411E-07	5.4282E-07	7.8323E-07
5.5375E-07	7.7699E-07	-1.5425E-06	1.9944E-06
6.1896E-07	4.4365E-07	2.5361E-07	2.6022E-06
6.2477E-07	2.5340E-07	-2.1484E-07	1.9518E-06
4.6970E-07	1.1154E-07	3.9025E-07	2.1471E-06
4.0274E-07	6.5068E-08	9.6204E-08	1.5169E-06
3.7258E-07	2.1661E-09	1.8697E-07	1.5124E-06
4.5596E-07	-5.7369E-08	-4.8391E-07	9.3598E-07
4.5847E-07	-1.9695E-07	-1.0596E-06	1.8941E-06
4.4689E-07	-4.3547E-07	-3.5305E-07	1.9972E-06
2.3319E-07	-6.0649E-07	-1.1728E-06	2.0848E-06
-3.9245E-08	-5.4930E-07	1.4735E-07	3.6497E-06
-3.5439E-07	-4.4694E-07	1.4856E-06	1.4898E-06
-4.3308E-07	-1.5168E-07	-1.9869E-07	9.2993E-07
-4.5377E-07	1.9730E-07	-6.8371E-07	1.3805E-06
-1.3992E-07	3.5522E-07	-5.9528E-07	2.4908E-06
1.2403E-07	3.5149E-07	4.0201E-07	1.6309E-06
2.9384E-07	9.7194E-08	-6.8761E-07	1.8487E-06
2.8805E-07	-1.6973E-07	1.5462E-07	1.6657E-06
9.4400E-08	-4.4119E-07	-1.3352E-06	1.9009E-06
-2.0955E-07	-5.5007E-07	1.7327E-07	3.0578E-06
-4.8671E-07	-3.9872E-07	1.0808E-07	1.9787E-06
-6.7341E-07	-1.0892E-07	4.2930E-07	2.3356E-06
-5.5824E-07	1.7285E-07	3.1161E-07	1.7729E-06
-3.2501E-07	3.8699E-07	7.1301E-07	1.4856E-06
-5.0543E-08	3.8163E-07	-7.7877E-07	8.2591E-07
1.9984E-07	2.2093E-07	-5.8016E-07	2.3206E-06
2.9675E-07	-8.6823E-09	-7.4412E-07	1.9843E-06
1.5759E-07	-1.0409E-07	2.1472E-07	3.2239E-06
-6.9580E-08	-1.9015E-07	5.3414E-07	1.5727E-06
-2.6025E-07	-1.1683E-07	3.2036E-07	2.2940E-06
-2.9362E-07	9.9014E-08	8.9344E-08	7.3475E-07
-3.1896E-07	2.3624E-07	-1.0845E-06	2.5461E-06
-1.5720E-07	3.1942E-07	7.4121E-08	1.9790E-06
9.2071E-08	2.1887E-07	-7.4896E-07	3.3795E-06
1.3955E-07	3.8973E-08	1.9246E-06	2.6520E-06
2.3359E-08	-9.4561E-08	4.1399E-07	1.1682E-06
-9.3903E-08	-1.4782E-07	2.5086E-07	1.5742E-06
-2.7658E-07	-4.3045E-08	-2.0855E-07	2.0438E-06
-2.7999E-07	1.1737E-07	7.4416E-07	1.4158E-06
-2.6539E-07	3.4864E-07	-1.3358E-06	1.4688E-06
-9.1066E-09	4.2866E-07	-2.8280E-08	3.1140E-06
1.0896E-07	4.1110E-07	4.9440E-09	2.2974E-06
3.2639E-07	2.6411E-07	6.3612E-07	2.6908E-06
3.5972E-07	2.3762E-08	3.2509E-09	2.0132E-06
2.1600E-07	-1.2940E-07	8.0070E-07	3.2849E-06
-8.8650E-09	-1.2814E-07	1.5842E-06	1.6154E-06
-1.1474E-07	-1.2212E-07	5.4046E-07	1.2443E-06
-1.9288E-07	8.4780E-08	-2.3422E-07	1.5240E-06
-8.1560E-08	2.3724E-07	1.2527E-07	2.7265E-06
1.1761E-07	3.0216E-07	1.2626E-06	2.2376E-06
2.9625E-07	2.0896E-07	1.2885E-06	9.4228E-07
3.2694E-07	2.3162E-08	-6.9045E-07	5.1630E-07
3.0995E-07	-2.4446E-07	-6.9151E-07	2.6099E-06
1.3976E-07	-3.6704E-07	1.8654E-07	2.0433E-06
-7.4157E-08	-4.0629E-07	-2.8123E-07	2.6906E-06
-3.0078E-07	-2.2531E-07	8.6348E-07	2.8838E-06
-2.8279E-07	2.1650E-08	1.3653E-06	1.9911E-06
-1.8704E-07	2.8448E-07	4.1427E-07	1.1142E-06
2.9642E-08	3.5355E-07	6.1949E-08	2.2113E-06
2.2580E-07	3.0322E-07	2.0486E-07	1.5715E-06
3.6681E-07	1.4306E-07	-4.3742E-07	3.3701E-06
3.4430E-07	-3.9601E-08	2.4183E-06	2.7479E-06
2.7253E-07	-2.5255E-07	7.7856E-07	9.8026E-07
1.1385E-07	-4.0456E-07	1.0676E-06	2.0991E-06
-6.4547E-08	-3.6280E-07	7.9791E-07	9.5936E-07
-1.8280E-07	-2.1277E-07	4.0304E-07	1.8617E-06
-2.2256E-07	-1.5098E-07	8.6266E-07	1.6008E-06
-1.9039E-07	-1.0899E-07	1.2527E-06	1.4208E-06
-1.6090E-07	-4.9183E-08	4.8115E-07	2.1101E-08
-1.4934E-07	-5.3323E-08	-7.7147E-07	1.1735E-06
-1.7362E-07	-1.8833E-08	-6.5402E-07	1.4642E-06
-2.1943E-07	1.6347E-08	-4.9278E-07	2.9314E-06
-1.7557E-07	9.4575E-08	1.0533E-06	1.8217E-06
-1.0616E-07	1.3728E-07	-4.5509E-07	1.9710E-06
2.0024E-08	1.5911E-07	1.1562E-06	2.4556E-06
8.3839E-08	2.0336E-07	4.8031E-07	9.3580E-07
2.1805E-07	6.0087E-08	-5.4134E-07	1.6560E-06
1.7722E-07	-3.9148E-08	-1.0802E-07	3.1315E-06
5.7113E-08	-1.9490E-07	1.9056E-06	2.1762E-06
-5.9314E-08	-2.1714E-07	4.6231E-07	1.0543E-06
-1.8433E-07	-1.7356E-07	9.3951E-07	1.4837E-06
-2.7617E-07	-3.9622E-08	-4.1342E-07	7.6634E-07
-2.0842E-07	1.1936E-07	1.3604E-07	2.5532E-06
-7.0613E-08	2.2704E-07	7.9097E-07	1.1183E-06
8.7882E-08	1.8323E-07	-2.7734E-07	1.3375E-06
1.7974E-07	1.0896E-07	-1.8987E-07	1.8431E-06
2.9411E-07	-2.4547E-08	1.4489E-07	1.7447E-06
1.9895E-07	-1.4459E-07	-4.7253E-07	2.0180E-06
5.3166E-08	-2.1846E-07	8.9408E-07	2.2857E-06
-4.8305E-08	-1.9104E-07	-4.5698E-07	9.5444E-07
-1.8715E-07	-1.3600E-07	4.5597E-08	3.2402E-06
-1.7914E-07	-1.0371E-08	1.0954E-06	1.0004E-06
-1.4464E-07	6.8779E-08	-8.5300E-07	2.0065E-06
1.1758E-08	1.5831E-07	8.6893E-07	2.3466E-06
4.6143E-08	1.2200E-07	2.2851E-07	1.3462E-06
9.7578E-08	8.4555E-08	1.6674E-07	1.9717E-06
9.5728E-08	-6.3898E-08	7.0696E-07	1.2211E-06
4.5556E-08	-7.1369E-08	-9.2669E-07	6.5520E-07
2.9615E-08	-6.7613E-08	-1.1380E-06	2.6246E-06
-3.4500E-08	-8.0457E-08	6.8180E-08	2.3528E-06
7.8040E-08	2.2055E-08	-1.8567E-07	2.1028E-06
1.1233E-07	3.9967E-08	-3.8504E-07	2.1205E-06
1.5901E-07	-1.2961E-08	-2.3940E-07	2.5922E-06
1.7385E-07	-8.4290E-08	-2.6972E-07	2.4294E-06
1.4408E-07	-1.7194E-07	3.2221E-07	3.1478E-06
3.8248E-08	-2.5745E-07	6.7073E-07	1.8598E-06
-1.5393E-08	-2.1832E-07	1.7174E-08	2.2547E-06
-1.5214E-07	-1.5205E-07	-2.6664E-07	1.6508E-06
-2.1075E-07	-1.0695E-08	-7.1127E-07	3.7201E-06
-1.5296E-07	2.6449E-08	1.8621E-06	2.3384E-06
-4.5948E-08	5.9351E-08	-9.8211E-07	1.4063E-06
3.8364E-08	5.6529E-08	-9.2937E-08	4.0160E-06
1.5428E-07	-8.2495E-09	1.5302E-06	2.9402E-06
1.4579E-07	-8.0602E-08	1.2842E-06	1.8221E-06
1.0262E-07	-1.5211E-07	4.1621E-07	1.6537E-06
-1.4233E-08	-1.8145E-07	3.7093E-07	1.9837E-06
-3.9583E-08	-1.4558E-07	2.9808E-07	1.9205E-06
-8.6393E-08	-7.4549E-08	9.8596E-08	1.8723E-06
-4.8684E-08	-2.2092E-08	1.2842E-08	2.2713E-06
-1.0578E-07	7.4727E-08	6.4714E-08	1.9392E-06
-1.6421E-08	6.0174E-08	-2.3492E-07	2.8168E-06
8.6016E-09	9.0316E-08	8.4027E-07	1.9402E-06
7.6538E-08	4.7412E-08	-1.3020E-06	2.2588E-06
6.2805E-08	-7.7777E-09	7.1525E-07	4.3579E-06
6.4396E-08	-7.6186E-08	1.8874E-06	2.1915E-06
5.2029E-08	-1.0942E-07	9.2819E-07	1.3900E-06
1.1437E-08	-1.0184E-07	-6.5490E-08	1.5250E-06
4.6158E-08	-1.1054E-07	2.0083E-07	1.9569E-06
2.7619E-08	-8.3327E-08	-8.5386E-07	1.7445E-06
-6.2051E-08	-7.0104E-08	-1.7236E-07	3.6349E-06
-5.7611E-08	-1.7977E-08	8.9916E-07	2.1922E-06
-7.8331E-08	-9.3464E-09	-1.5929E-07	2.5406E-06
-4.7552E-08	1.2256E-08	6.5461E-07	2.5305E-06
1.0256E-08	1.5164E-08	1.9171E-08	2.3113E-06
3.9194E-08	4.4504E-08	5.2805E-07	2.8177E-06
8.2050E-08	6.5280E-08	6.1111E-07	1.9167E-06
1.0682E-07	5.4126E-08	-4.4376E-07	2.2006E-06
1.4085E-07	-7.1910E-08	-2.3485E-08	3.0656E-06
1.4285E-07	-3.9499E-08	1.9638E-07	3.0698E-06
8.3777E-08	-8.6627E-08	1.2093E-06	3.3653E-06
1.1465E-07	-6.3314E-08	1.1554E-06	1.5954E-06
4.5215E-08	-8.7847E-08	-2.2442E-07	2.4790E-06
2.7545E-08	-6.5194E-08	7.1200E-07	2.7183E-06
2.4333E-08	-3.1474E-08	4.2395E-07	2.8629E-06
4.8915E-08	-4.8588E-08	1.5946E-06	2.6200E-06
5.6832E-08	-7.4385E-08	9.1256E-07	1.5986E-06
7.4615E-08	-1.1397E-07	7.6837E-07	1.5965E-06
5.6550E-08	-4.8739E-08	-3.7958E-07	1.3112E-06
2.7978E-08	-1.0951E-07	-5.0744E-07	2.7108E-06
2.0682E-08	-1.0357E-07	2.1829E-07	2.9537E-06
4.0836E-08	-1.3046E-07	1.1369E-06	2.6265E-06
-2.2006E-08	-6.9539E-08	4.1543E-07	1.2425E-06
-1.5711E-08	-7.1614E-08	-6.0864E-07	2.3618E-06
2.7726E-09	-7.9252E-08	2.7496E-07	2.5465E-06
1.5632E-08	-5.2526E-08	-2.6440E-07	2.0938E-06
-1.4435E-08	-7.7759E-08	-6.0375E-07	3.1107E-06
1.9020E-10	-8.2889E-08	5.7794E-07	3.3519E-06
-6.2679E-08	-9.2250E-08	3.9279E-07	2.6250E-06
-5.4112E-08	-6.1563E-08	5.9787E-07	3.2046E-06
-7.2622E-08	2.3351E-08	1.3146E-06	2.4664E-06
-5.5717E-08	-1.1656E-08	8.9215E-07	1.2402E-06
-2.5338E-08	1.1853E-08	-1.5492E-06	1.3338E-06
5.0208E-08	2.6144E-08	-8.4544E-07	4.5832E-06
5.1186E-09	7.2269E-09	1.5367E-06	2.8304E-06
4.7726E-09	-1.2110E-10	-3.6887E-07	2.3846E-06
-2.8239E-08	-2.3438E-08	3.3658E-07	3.3100E-06
-1.6493E-08	-2.4728E-08	2.5175E-07	2.8050E-06
-2.7999E-08	-2.7515E-08	4.2885E-08	3.1640E-06
-1.9818E-08	-2.1382E-08	3.7315E-07	3.9072E-06
-4.2129E-08	5.9988E-08	1.7348E-06	3.3098E-06
-1.6701E-08	-1.4658E-08	7.8221E-07	2.3288E-06
