jMRUI Data Textfile

Filename: Export_to_jmrui.txt

PointsInDataset: 2048
DatasetsInFile: 1
SamplingInterval: 0.250000
ZeroOrderPhase: 0E0
BeginTime: 0E0
TransmitterFrequency: 1.2326E8
MagneticField: 2.8936E0
TypeOfNucleus:  
NameOfPatient:  
DateOfExperiment:  
Spectrometer:  
AdditionalInfo: 
SignalNames:  


Signal and FFT
sig(real)	sig(imag)	fft(real)	fft(imag)
Signal 1 out of 1 in file
3.5661E-06	1.7091E-07	1.8452E-08	8.4308E-07
4.5997E-06	-1.0433E-06	-1.7100E-07	1.5536E-06
3.0106E-06	-2.3904E-06	1.8929E-06	-4.2251E-07
1.6937E-06	-2.9660E-06	-1.4668E-06	-1.4246E-06
-3.3662E-07	-2.8629E-06	-9.9738E-07	9.5268E-07
-1.5595E-06	-1.9387E-06	-2.0713E-07	4.5449E-07
-2.2169E-06	-6.6625E-07	-3.5253E-07	-2.1029E-07
-1.6254E-06	3.0301E-07	-1.4721E-06	5.0380E-07
-8.1158E-07	7.9948E-07	-4.5821E-07	8.8791E-07
1.8888E-07	7.8714E-07	-1.2426E-06	1.2492E-06
7.2721E-07	3.0270E-07	8.2933E-07	1.6838E-06
9.2348E-07	-2.7384E-07	-2.2962E-07	-2.4353E-07
6.1216E-07	-7.1024E-07	-6.0262E-07	1.3179E-06
2.5558E-07	-8.5498E-07	7.5334E-08	9.3125E-07
-2.0931E-07	-8.8527E-07	2.2406E-07	7.7687E-07
-5.2829E-07	-5.8660E-07	-6.7136E-07	2.9110E-07
-6.3018E-07	-3.9984E-07	-4.6066E-07	2.0364E-06
-5.6583E-07	-2.0643E-07	9.9152E-07	8.5232E-07
-5.1842E-07	-1.0747E-07	-5.6518E-07	6.4532E-07
-4.8058E-07	-3.6237E-08	4.3071E-07	1.8042E-06
-6.0841E-07	2.9859E-08	5.9680E-07	4.5443E-07
-6.1143E-07	1.9040E-07	-2.7008E-08	1.2733E-06
-5.9041E-07	3.4362E-07	7.6039E-07	7.9819E-07
-3.7128E-07	4.8331E-07	1.0825E-07	1.1999E-06
-2.0684E-07	4.7108E-07	1.4960E-06	8.3158E-07
6.9118E-08	3.6555E-07	2.8789E-07	-2.4585E-07
1.8164E-07	9.3147E-08	3.9151E-08	5.5357E-07
1.8218E-07	-8.7136E-08	1.4063E-07	7.1833E-07
-3.2480E-08	-1.8738E-07	6.6121E-07	1.5267E-07
-2.4410E-07	-1.5186E-07	-1.1231E-06	-7.0773E-08
-4.6598E-07	6.0146E-08	-4.8846E-07	2.1436E-06
-4.7749E-07	3.5479E-07	1.0029E-06	9.9724E-07
-3.3334E-07	5.6451E-07	-1.9098E-07	5.8997E-07
-9.0817E-08	6.9846E-07	5.1121E-07	1.7336E-06
1.4016E-07	6.0157E-07	1.1912E-06	-6.6469E-08
4.1603E-07	4.6445E-07	-8.2052E-07	3.9257E-07
3.7642E-07	2.2004E-07	4.9984E-07	9.4737E-07
4.1791E-07	1.1321E-07	-1.0626E-06	-4.1671E-08
2.5536E-07	-5.4574E-09	-1.3652E-06	2.5247E-06
2.2397E-07	1.4543E-09	9.5826E-07	3.1030E-06
1.2470E-07	3.2297E-08	2.3031E-06	1.0846E-06
2.2787E-07	2.3353E-08	4.1805E-07	-1.4482E-07
2.5813E-07	-4.8327E-08	-2.1293E-08	1.0257E-06
2.9667E-07	-1.9879E-07	8.1307E-09	1.3085E-06
2.0861E-07	-3.3308E-07	7.1916E-07	1.8704E-06
9.5939E-08	-4.2225E-07	1.3540E-06	1.3412E-06
-1.4282E-07	-3.4045E-07	1.5869E-06	3.1922E-07
-2.2980E-07	-2.2556E-07	1.0859E-07	-6.0286E-08
-2.0639E-07	-2.9003E-08	2.5488E-07	9.7229E-07
-1.4104E-07	1.0010E-07	3.5179E-07	7.5520E-07
-2.2644E-08	1.4486E-07	5.7949E-07	6.9397E-07
8.0731E-08	4.0953E-08	-1.7035E-07	5.7066E-07
1.1078E-07	-7.6095E-08	2.2586E-07	1.1273E-06
2.1566E-08	-2.1549E-07	-4.1973E-07	1.2079E-06
-1.6807E-07	-2.0899E-07	1.1826E-06	2.2847E-06
-2.6467E-07	-1.5349E-07	1.2416E-06	-8.9651E-08
-3.5585E-07	-2.5006E-08	-3.1820E-07	7.2838E-07
-2.1781E-07	8.6920E-08	3.7360E-08	1.2464E-06
-1.3157E-07	1.6957E-07	5.0361E-07	1.7262E-06
6.4404E-08	1.2769E-07	9.3590E-07	9.6516E-07
1.5618E-07	-2.7791E-08	5.3597E-07	1.1159E-06
1.3143E-07	-1.3899E-07	8.7848E-07	7.6257E-07
-2.9022E-10	-1.8815E-07	1.4602E-07	6.1906E-07
-1.4606E-07	-1.5435E-07	7.1671E-08	1.2263E-06
-2.4614E-07	-4.9575E-08	2.9413E-07	1.5908E-06
-2.7069E-07	1.0449E-07	1.3280E-06	1.7256E-06
-2.2997E-07	2.2008E-07	1.2936E-06	-1.0991E-08
-8.4223E-08	2.6893E-07	-2.4358E-07	8.0524E-07
9.4944E-09	1.9202E-07	9.8526E-07	9.9375E-07
7.0087E-08	9.5728E-08	2.6263E-07	4.3392E-07
5.1382E-08	-4.4510E-08	3.6193E-07	1.9807E-07
-3.6635E-08	-8.1013E-08	-1.3024E-06	7.1793E-07
-1.5847E-07	-2.0736E-08	4.1512E-08	1.8131E-06
-1.9964E-07	8.8292E-08	-8.3851E-07	1.2772E-06
-1.5066E-07	1.6886E-07	9.8029E-08	2.5690E-06
-4.4241E-08	2.1982E-07	-2.0683E-07	2.1007E-06
9.5417E-08	2.2539E-07	1.3182E-06	3.2333E-06
1.8215E-07	1.7729E-07	1.4166E-06	1.4362E-06
1.7393E-07	5.5370E-08	1.6997E-06	1.8455E-06
7.6139E-08	-5.0839E-08	7.9438E-07	4.0497E-07
3.7005E-09	-9.6681E-08	7.6846E-07	2.0843E-06
-1.2129E-07	-5.7760E-09	9.0221E-07	9.0885E-07
-8.7005E-08	1.2579E-07	1.0451E-06	2.5104E-06
4.2599E-08	1.8703E-07	2.2275E-06	6.4686E-07
8.0425E-08	1.9407E-07	8.9500E-07	6.5439E-07
2.2293E-07	1.5918E-07	6.2481E-07	5.3185E-07
2.5880E-07	-3.5969E-08	6.2490E-07	1.5593E-06
2.5597E-07	-1.2820E-07	9.3923E-07	7.4489E-07
8.7031E-08	-2.1784E-07	8.5384E-07	1.5123E-06
-3.0064E-08	-2.1001E-07	9.3617E-07	1.6583E-07
-1.7984E-07	-1.1001E-07	-2.1973E-07	1.5098E-06
-2.1552E-07	3.8363E-09	8.3267E-07	1.4491E-06
-1.0300E-07	1.4495E-07	8.5524E-07	1.7533E-06
3.6296E-08	2.2860E-07	9.8253E-07	7.5132E-07
1.9366E-07	2.1795E-07	4.7845E-07	2.1136E-06
2.8593E-07	1.0932E-07	2.0479E-06	8.2737E-07
2.8814E-07	-3.3559E-08	1.9636E-07	5.5553E-07
2.2657E-07	-1.7640E-07	2.7825E-07	1.4124E-06
5.9244E-08	-2.0440E-07	8.2511E-07	2.5380E-06
-2.8376E-08	-2.9135E-07	2.5099E-06	1.1009E-06
-1.2269E-07	-1.6894E-07	1.1558E-06	5.4752E-07
-2.0195E-07	-1.2659E-07	1.7731E-06	-2.1957E-08
-1.0458E-07	-3.4648E-08	-5.6953E-07	-6.9553E-07
-1.1000E-07	-6.0539E-08	-1.1018E-06	1.8040E-06
-8.6819E-08	1.8139E-09	9.2581E-07	2.5368E-06
-8.3737E-08	2.8975E-08	1.2954E-06	6.4059E-07
-5.2304E-08	4.2448E-08	-1.4517E-07	1.1942E-06
-1.1285E-07	1.9374E-08	3.0220E-07	1.5677E-06
-5.3160E-08	1.0962E-07	2.0008E-07	2.6365E-06
2.0541E-08	8.8278E-08	2.3611E-06	2.0853E-06
2.7105E-08	7.9737E-08	1.2568E-06	3.9001E-07
8.0173E-08	5.2679E-08	3.6823E-07	1.1498E-06
7.9852E-08	-8.1630E-09	8.0660E-07	2.1107E-06
6.1523E-08	-1.0211E-07	2.1244E-06	1.2929E-06
-8.0751E-08	-8.4577E-08	1.0566E-06	7.1758E-08
-9.8857E-08	-8.0175E-08	-1.4571E-07	7.2050E-07
-1.7740E-07	-1.2417E-08	3.2530E-07	2.2836E-06
-1.3936E-07	6.4639E-08	1.6673E-06	1.2184E-06
-7.6364E-08	1.3904E-07	3.4118E-07	1.1601E-06
4.1251E-08	1.4818E-07	1.4649E-06	1.4829E-06
1.1880E-07	9.0332E-08	3.4837E-07	3.6135E-07
1.4460E-07	1.5224E-09	-2.4468E-08	2.1094E-06
1.4548E-07	-4.7350E-08	1.4812E-06	1.7613E-06
3.2177E-08	-4.5303E-08	5.0052E-07	9.1122E-07
-5.1193E-08	-7.9664E-08	5.7335E-07	2.1177E-06
-7.9650E-08	-4.8844E-08	7.6335E-07	1.3616E-06
-9.0100E-08	-2.3649E-08	4.7627E-07	2.9909E-06
-4.8728E-08	5.7924E-08	2.6540E-06	1.9304E-06
2.3806E-08	6.9477E-08	1.0767E-06	1.4614E-06
1.3689E-08	3.1987E-08	2.7891E-06	1.9056E-06
1.0012E-07	7.1432E-08	1.8239E-06	-2.0767E-07
6.8556E-08	-3.3323E-08	1.0116E-06	8.3531E-07
2.1852E-08	5.9853E-09	1.0246E-06	4.3043E-07
1.5310E-08	-3.0850E-08	6.2547E-07	1.2523E-06
3.7561E-08	1.2543E-08	1.4056E-06	6.3934E-07
2.8461E-08	8.3793E-09	-3.5132E-07	6.4107E-07
4.2783E-08	2.3294E-08	6.4363E-07	2.7033E-06
1.5482E-07	-3.0560E-08	1.8085E-06	1.3888E-06
1.1728E-07	-4.0041E-08	1.3714E-06	1.4135E-06
1.1291E-07	-1.0339E-07	1.6379E-06	6.8026E-07
4.7032E-08	-1.3706E-07	8.8014E-07	9.0266E-07
-6.9071E-08	-9.7572E-08	1.0547E-06	7.0708E-07
-4.8723E-08	-1.3078E-07	3.9666E-07	1.2403E-06
-9.6861E-08	-4.8239E-08	1.2073E-06	1.6383E-06
-1.0198E-07	1.6068E-08	1.8504E-06	1.0613E-06
-5.0432E-08	4.4196E-08	9.1395E-07	-4.1093E-07
1.7432E-08	4.8148E-08	-4.5065E-07	1.3584E-06
-7.6863E-09	6.6837E-09	1.0835E-06	1.4187E-06
2.9242E-08	-1.7742E-08	4.5757E-07	1.2527E-06
3.7326E-08	-8.2670E-08	8.5103E-07	1.1691E-06
-1.9295E-08	-1.1213E-07	3.3234E-07	1.5715E-06
-8.1155E-09	-1.0743E-07	8.1857E-07	1.2095E-06
-9.2940E-08	-1.7996E-09	-2.0565E-07	2.3587E-06
-8.4976E-08	-2.8821E-08	2.0823E-06	2.5811E-06
-3.1491E-08	2.1987E-09	1.4399E-06	1.5612E-06
-4.6545E-08	5.5110E-08	2.5037E-06	1.6650E-06
2.0197E-08	6.1966E-08	1.7738E-06	8.1633E-08
1.3534E-08	6.8122E-08	7.2943E-07	5.4002E-07
2.6372E-08	3.6393E-08	8.7512E-07	1.6808E-06
2.4942E-08	-2.5540E-08	2.2721E-06	5.3419E-07
3.4547E-08	-4.1102E-08	1.0655E-07	3.7248E-08
3.4466E-08	-3.0488E-08	7.6733E-07	1.5134E-06
2.0546E-08	-2.7431E-08	1.1338E-06	1.0663E-06
3.4203E-08	-4.9288E-08	1.3293E-06	3.0868E-08
-1.1571E-08	4.7731E-08	-1.0509E-06	7.4018E-07
-2.2224E-08	-1.2177E-08	1.1481E-06	2.3120E-06
-5.7944E-08	-2.2279E-08	2.7421E-07	7.9637E-07
-4.1844E-08	4.6813E-08	1.3101E-06	2.2464E-06
-4.1398E-08	5.4148E-08	4.7435E-07	2.6810E-07
-2.1340E-08	7.2029E-08	5.8145E-07	3.1981E-06
7.7820E-08	7.1974E-08	3.0083E-06	7.2827E-07
4.4392E-08	5.2614E-08	7.0706E-07	9.7936E-08
6.7057E-08	2.7132E-08	8.9319E-07	3.5814E-07
1.1848E-07	-7.1802E-09	-4.3813E-07	4.5556E-07
8.3299E-08	-1.9101E-08	3.1368E-09	2.0536E-06
8.9067E-08	-1.0501E-08	1.0676E-06	1.3940E-06
6.5845E-08	-2.7592E-08	5.5058E-08	1.1893E-06
5.0068E-08	-1.0122E-07	6.7731E-07	2.4660E-06
3.5248E-08	-6.6736E-08	2.0235E-06	1.5403E-06
-2.6518E-09	-4.1661E-08	1.2732E-06	-5.5222E-08
4.8534E-08	-2.0990E-08	-6.5179E-07	6.7349E-07
3.1959E-08	-6.4070E-08	3.1346E-07	2.3148E-06
7.3371E-08	-4.6612E-08	1.1245E-06	1.4728E-06
4.8240E-09	-6.1970E-08	8.7820E-07	1.0212E-06
2.8467E-08	-8.6181E-08	-1.4571E-08	8.7870E-07
-4.3380E-08	-6.6121E-08	-9.7838E-08	2.1358E-06
-3.6191E-08	-4.6372E-08	9.1616E-07	2.2423E-06
-2.7491E-08	-7.3880E-08	1.2630E-06	1.5476E-06
-6.8535E-09	-4.6831E-08	6.4544E-07	1.2738E-06
-3.0708E-08	-6.5847E-08	7.8716E-07	1.5854E-06
-3.1206E-08	4.6773E-09	4.9407E-07	1.3200E-06
-7.7466E-08	-2.1082E-08	4.2984E-07	1.8496E-06
-2.6967E-08	1.1087E-08	8.1330E-07	2.0334E-06
-2.3598E-08	-1.5532E-08	1.3059E-06	1.2749E-06
-3.2313E-08	1.0740E-08	-4.4419E-07	1.2323E-06
-8.0248E-09	1.9438E-09	6.6308E-07	3.3877E-06
-3.8912E-08	-9.0798E-09	2.1011E-06	1.7834E-06
-7.0442E-09	-4.8892E-09	1.1587E-06	1.1111E-06
-4.4899E-08	2.8653E-08	4.9435E-07	1.4155E-06
-2.9318E-08	-1.2590E-08	9.8942E-07	2.0900E-06
4.5603E-09	-4.9024E-10	1.1006E-06	1.4285E-06
1.3576E-08	-1.7078E-11	9.6054E-07	1.4549E-06
-9.4067E-09	3.2257E-08	-1.6235E-07	1.4426E-06
-1.0908E-08	1.7701E-08	1.0012E-06	3.7711E-06
4.9047E-09	-1.5903E-08	2.7904E-06	1.3460E-06
-3.7336E-08	8.0224E-09	9.3983E-07	1.4495E-06
