jMRUI Data Textfile

Filename: Export_to_jmrui.txt

PointsInDataset: 2048
DatasetsInFile: 1
SamplingInterval: 0.250000
ZeroOrderPhase: 0E0
BeginTime: 0E0
TransmitterFrequency: 1.2326E8
MagneticField: 2.8936E0
TypeOfNucleus:  
NameOfPatient:  
DateOfExperiment:  
Spectrometer:  
AdditionalInfo: 
SignalNames:  


Signal and FFT
sig(real)	sig(imag)	fft(real)	fft(imag)
Signal 1 out of 1 in file
3.1786E-06	4.0505E-08	1.6190E-06	-4.7911E-07
3.2614E-06	-9.1294E-07	-1.0803E-06	-1.2186E-06
2.1593E-06	-1.7279E-06	-1.4826E-06	1.6899E-06
1.1682E-06	-2.1464E-06	1.0200E-06	1.9445E-06
-3.5472E-07	-2.0016E-06	1.1984E-06	-1.3024E-07
-1.0886E-06	-1.3631E-06	-9.6092E-07	1.1025E-07
-1.4957E-06	-5.2370E-07	-4.4577E-08	2.4499E-06
-1.0648E-06	1.9009E-07	1.9470E-06	1.2302E-06
-5.7151E-07	4.8134E-07	1.1140E-06	9.9153E-09
1.5793E-07	4.7361E-07	6.1117E-07	8.2233E-08
4.9920E-07	5.4038E-08	-4.5308E-08	5.8797E-08
6.1301E-07	-2.6491E-07	-4.9278E-07	1.2210E-06
3.5834E-07	-5.3806E-07	8.0714E-07	1.9331E-06
4.3962E-08	-6.8073E-07	1.5177E-06	8.7864E-07
-2.2335E-07	-5.6268E-07	8.2058E-07	4.0447E-07
-4.0045E-07	-4.0908E-07	6.7316E-07	8.3348E-07
-4.7613E-07	-1.9631E-07	8.3613E-07	8.0576E-07
-3.2322E-07	-1.3380E-07	9.1865E-07	7.6673E-07
-3.2270E-07	-1.5275E-07	4.0316E-07	7.1524E-07
-3.6360E-07	-1.1688E-07	1.2068E-06	2.0752E-06
-4.5075E-07	-8.2706E-08	2.6327E-06	-9.5738E-08
-5.1146E-07	2.4199E-08	3.2850E-08	-4.5014E-07
-5.2929E-07	1.6705E-07	4.9161E-07	1.0174E-06
-3.9553E-07	3.2708E-07	6.8744E-07	1.1467E-06
-2.0945E-07	4.0266E-07	1.6687E-06	9.0455E-07
1.2665E-08	2.8524E-07	9.2424E-07	5.5336E-07
1.2151E-07	1.0248E-07	2.0955E-06	4.4548E-07
1.2648E-07	-2.8333E-08	1.3968E-07	-1.0315E-06
-6.6383E-08	-6.7820E-08	-2.0833E-07	1.5889E-06
-2.0903E-07	-9.1864E-08	1.2412E-06	1.3322E-06
-3.4490E-07	1.1841E-07	1.7485E-06	1.1705E-06
-3.1857E-07	3.0035E-07	1.6947E-06	7.4149E-08
-2.3687E-07	4.8581E-07	1.4437E-06	5.2545E-07
-4.7283E-08	5.3777E-07	1.9728E-06	-6.1445E-07
1.5079E-07	4.8970E-07	1.6428E-07	-1.2826E-06
3.0874E-07	2.8885E-07	-9.4554E-07	6.3134E-07
2.8294E-07	1.0168E-07	1.0026E-06	1.7355E-06
2.5392E-07	2.6466E-09	1.4969E-06	2.3649E-07
1.0850E-07	-2.5939E-08	1.0498E-06	-2.1826E-07
8.9436E-08	-5.1638E-08	-3.4087E-07	-2.6918E-07
1.3053E-08	8.3491E-08	3.5627E-07	1.4473E-06
1.4042E-07	4.2754E-08	6.2023E-07	4.9716E-08
2.0853E-07	4.8856E-08	-2.3768E-08	1.5901E-06
2.7429E-07	-5.5143E-08	1.7091E-06	9.0324E-07
2.2400E-07	-2.2392E-07	9.3340E-07	4.1137E-08
1.3038E-07	-2.9615E-07	1.1361E-07	-7.1951E-08
-1.5780E-08	-3.3339E-07	2.1358E-08	1.3285E-06
-1.1028E-07	-2.1506E-07	5.9295E-07	2.8799E-07
-1.6272E-07	-1.4405E-07	-6.6999E-07	2.0731E-06
-1.2510E-07	-9.5744E-09	2.2870E-06	1.7774E-06
-6.7964E-08	5.9245E-08	7.4925E-07	5.4562E-07
5.1134E-08	2.4005E-08	2.0768E-06	9.1634E-07
2.8518E-08	-3.9583E-08	1.2749E-07	-6.5633E-07
2.5309E-08	-8.8464E-08	5.6814E-07	1.7093E-06
-2.9028E-08	-1.4625E-07	8.8721E-07	-4.1177E-08
-1.2990E-07	-9.9628E-08	1.7751E-07	1.5181E-06
-1.8993E-07	-4.6460E-08	1.4844E-06	4.7809E-07
-1.7991E-07	5.1357E-09	1.6205E-07	2.6600E-07
-7.5205E-08	6.1413E-08	-2.5007E-07	7.4791E-07
5.6342E-08	-7.1987E-10	1.1206E-07	2.2038E-06
6.0773E-08	-3.9735E-08	1.3147E-06	9.7044E-07
4.6465E-08	-1.1771E-07	-2.6092E-07	1.5029E-06
-4.8139E-08	-1.4719E-07	1.2677E-06	2.2951E-06
-1.4407E-07	-1.4732E-07	1.4934E-06	1.6536E-06
-2.4237E-07	-7.0426E-08	1.9575E-06	8.6501E-07
-2.5150E-07	7.4992E-08	6.8793E-07	7.2392E-07
-1.6459E-07	1.7329E-07	1.2602E-06	1.0540E-06
-6.6929E-08	2.1596E-07	2.0557E-07	1.1664E-06
5.3216E-08	1.2180E-07	1.6636E-06	2.0943E-06
7.4527E-08	4.6770E-08	1.1247E-06	9.5922E-07
3.7356E-08	1.4175E-08	2.1807E-06	2.1775E-06
-1.9361E-08	-4.3588E-08	2.4002E-06	-4.9798E-07
-9.8172E-08	-2.9371E-09	3.3276E-07	4.9642E-07
-1.4251E-07	5.8637E-08	1.3993E-06	7.9934E-07
-1.2221E-07	1.6139E-07	5.0138E-07	2.3037E-07
-1.5774E-08	2.1254E-07	-4.4897E-08	1.6638E-06
7.9041E-08	1.7857E-07	1.9787E-06	2.3448E-06
1.2486E-07	1.0311E-07	2.0518E-06	-1.6642E-07
1.4368E-07	-2.4477E-08	-1.6989E-07	9.1656E-07
5.9548E-08	-6.3956E-08	1.5947E-06	2.1632E-06
-2.9732E-08	-1.0132E-08	1.8792E-06	6.1563E-07
-5.2105E-08	1.5749E-08	1.0343E-06	9.3802E-07
-5.2834E-08	1.3969E-07	1.5863E-06	1.0569E-06
-2.7274E-08	1.9597E-07	1.2451E-06	8.6514E-07
1.0079E-07	1.6874E-07	1.9894E-06	1.0864E-06
1.7073E-07	1.8432E-07	1.5853E-06	-3.3388E-07
2.7139E-07	3.7557E-08	6.4654E-07	3.3432E-07
2.2312E-07	-1.4938E-07	3.8568E-07	1.3383E-08
7.2635E-08	-2.1639E-07	-5.1017E-07	1.9056E-06
-4.7737E-08	-2.0076E-07	2.0780E-06	1.9028E-06
-1.2900E-07	-1.0853E-07	6.7673E-07	6.0805E-07
-1.6848E-07	2.6666E-08	1.8458E-06	2.1665E-06
-3.9747E-08	1.4878E-07	1.7692E-06	-6.0820E-07
6.2343E-08	1.8724E-07	-4.9183E-07	1.5364E-06
1.4922E-07	1.4546E-07	2.2533E-06	1.9447E-06
2.3524E-07	6.0668E-08	1.4435E-06	4.8941E-07
2.0453E-07	-7.2548E-08	1.7493E-06	9.0180E-07
1.3602E-07	-1.6476E-07	1.1549E-06	-1.1409E-07
1.8175E-08	-1.3812E-07	4.8694E-07	5.9351E-07
-1.2781E-08	-1.8609E-07	3.9782E-07	8.3329E-07
-8.3328E-08	-1.5212E-07	4.6385E-07	1.4234E-06
-1.3301E-07	-5.0120E-08	7.6986E-07	1.8245E-06
-1.0805E-07	-6.1640E-08	2.1298E-06	1.7760E-06
-9.5635E-08	-2.8825E-08	1.6870E-06	-3.6948E-07
-7.3614E-08	-2.3401E-08	-4.7391E-07	5.5751E-07
-9.4083E-08	2.4997E-10	2.4831E-07	2.1453E-06
-1.1372E-07	3.1538E-08	1.1663E-06	2.1575E-06
-6.6021E-08	6.4371E-08	1.7422E-06	1.7401E-06
-4.7957E-08	4.0130E-08	1.4598E-06	1.0848E-06
2.6501E-08	8.6128E-08	1.1443E-06	1.7328E-06
4.0795E-08	1.0575E-07	2.2504E-06	1.3675E-06
7.2545E-08	8.5579E-08	1.1837E-06	5.1558E-07
7.2719E-08	-1.6914E-08	1.4584E-06	1.6477E-06
5.2757E-08	-7.3529E-08	1.7960E-06	2.2884E-07
-1.3208E-08	-6.2566E-08	1.2635E-08	8.1854E-07
-1.1066E-07	-3.6489E-08	8.3835E-07	2.3937E-06
-1.0816E-07	1.8511E-09	2.2639E-06	1.8302E-06
-9.7945E-08	6.1007E-08	1.5852E-06	5.1468E-07
-2.9792E-08	9.8555E-08	9.0647E-07	1.9162E-06
4.5068E-09	1.1319E-07	2.7944E-06	1.3346E-06
9.3092E-08	6.9338E-08	1.1203E-06	8.0483E-08
1.0211E-07	2.6781E-08	1.3630E-06	1.7300E-06
1.1893E-07	-3.3217E-08	1.8285E-06	4.3805E-07
3.2070E-08	-2.1634E-08	9.0182E-07	1.1911E-06
3.3162E-08	-1.0294E-07	1.6792E-06	9.7123E-07
-6.8329E-08	-1.7752E-08	1.1774E-06	1.2009E-06
-7.4658E-08	3.6228E-08	1.9238E-06	5.9363E-07
-1.8634E-08	6.8457E-08	3.1705E-07	6.6995E-07
2.1184E-08	3.6426E-08	1.3334E-06	1.6683E-06
5.6584E-08	9.2130E-08	9.5761E-07	1.2257E-06
5.5472E-08	4.9493E-08	2.0137E-06	1.6490E-06
7.1890E-08	2.6934E-08	1.0639E-06	3.9647E-07
-1.0778E-08	1.3656E-08	1.4587E-06	1.8896E-06
1.3674E-08	2.9135E-08	1.4849E-06	1.2569E-07
3.7700E-08	4.5186E-08	3.2000E-07	1.7905E-06
7.8059E-08	1.5752E-08	1.8765E-06	1.5336E-06
6.4958E-08	3.0710E-08	1.3271E-06	1.1072E-06
1.3538E-07	-1.0477E-09	9.6807E-07	1.1163E-06
1.1752E-07	-7.9150E-08	1.2944E-06	2.4096E-06
7.0527E-08	-1.1319E-07	2.5662E-06	9.5289E-07
9.8409E-09	-9.2873E-08	1.0325E-06	1.1529E-06
4.2871E-08	-1.0081E-07	2.3319E-06	1.0838E-06
-7.8955E-08	-1.0471E-07	7.2625E-07	3.1580E-07
-7.2774E-08	-2.7928E-08	1.0397E-06	1.8367E-06
-7.8085E-08	-1.9073E-08	1.5677E-06	1.3485E-06
-3.2393E-08	4.3429E-08	1.5018E-06	1.1929E-06
-3.6260E-09	-1.3368E-08	1.0238E-06	1.3073E-06
1.7984E-08	-1.3244E-08	1.5099E-06	1.8340E-06
2.5664E-08	-4.1816E-08	1.6673E-06	1.5639E-06
3.0837E-08	-8.6943E-08	2.1069E-06	1.4242E-06
-1.0631E-08	-4.6385E-08	1.4280E-06	7.8211E-07
-5.3488E-08	-7.0311E-08	1.3464E-06	1.8638E-06
-6.1882E-08	-7.7286E-08	2.3129E-06	1.4353E-06
-2.4725E-08	-2.0505E-08	1.9204E-06	6.2153E-07
3.6077E-10	1.1636E-08	8.6648E-07	9.0525E-07
-1.9621E-08	1.9327E-08	1.4309E-06	2.3035E-06
-2.8696E-08	4.2709E-08	2.8497E-06	1.3628E-06
4.5604E-09	3.4197E-08	1.8808E-06	1.9679E-07
3.2015E-08	3.6356E-08	1.0420E-06	9.0764E-07
8.7058E-08	-1.8602E-08	1.4171E-06	1.2829E-06
1.1458E-08	-5.3884E-08	1.2017E-06	1.3981E-06
3.8303E-08	1.4475E-08	1.9674E-06	1.9649E-06
1.7221E-08	-1.6579E-08	2.4087E-06	7.5161E-07
4.6912E-08	-4.8815E-08	1.1774E-06	6.2118E-07
-1.6133E-08	5.6984E-09	1.2078E-06	1.7265E-06
-2.7715E-08	-2.9639E-08	2.3146E-06	1.5857E-06
-4.3814E-08	-1.9838E-08	2.0095E-06	5.1441E-07
-9.2153E-09	5.1042E-08	1.0667E-06	7.5217E-07
-3.0927E-08	5.4219E-08	9.5382E-07	1.8982E-06
1.7414E-08	6.6761E-08	2.7333E-06	1.9990E-06
2.4422E-08	5.4725E-08	2.0968E-06	-4.8157E-08
4.2025E-08	7.2022E-08	7.2087E-07	1.1818E-06
1.0620E-07	6.7972E-08	1.4202E-06	1.7655E-06
1.0215E-07	2.0540E-08	2.2391E-06	2.0791E-06
4.3102E-08	-1.1152E-08	2.4950E-06	3.9207E-07
5.5080E-08	-4.0812E-08	7.4724E-07	1.3506E-06
4.0224E-08	-3.8371E-08	2.5015E-06	2.1059E-06
4.6447E-08	-4.7981E-08	2.4459E-06	7.8882E-07
4.5968E-09	-3.5300E-08	1.7861E-06	8.3829E-07
2.9149E-08	-2.3491E-08	1.7631E-06	1.5290E-06
2.1823E-08	-4.3142E-08	2.5440E-06	1.2568E-06
3.4433E-08	-7.3888E-08	2.3065E-06	1.0499E-06
1.6423E-08	-5.0840E-08	2.7374E-06	7.5643E-07
1.9591E-08	-2.9350E-08	2.5383E-06	2.6147E-07
1.7582E-08	-6.3699E-08	1.8410E-06	-5.3727E-07
-5.1531E-10	-6.4603E-08	9.4176E-07	1.0783E-06
-1.8293E-08	-3.1359E-08	2.9082E-06	-8.4411E-09
2.6923E-08	-4.8502E-08	-2.0265E-07	-3.8999E-07
-1.3499E-08	-3.8525E-08	1.5799E-06	1.8449E-06
-3.4619E-08	9.0410E-10	5.4108E-07	1.3830E-07
-2.5638E-08	-1.9265E-08	1.3982E-06	3.3243E-06
-6.4487E-08	4.7352E-09	3.7674E-06	3.0692E-07
7.8521E-09	-6.5585E-09	1.0947E-06	-9.9843E-08
-3.8610E-08	-3.0099E-08	1.5021E-06	8.9664E-07
-3.2517E-08	1.9559E-08	1.6381E-06	6.9582E-07
1.4914E-08	-9.2647E-09	1.4690E-06	4.6959E-07
5.7755E-09	-2.3589E-08	1.4185E-06	6.5873E-07
8.5163E-09	1.7962E-08	8.4438E-07	4.8196E-08
-2.1890E-08	-7.5069E-09	-7.8415E-08	1.7953E-06
-3.2757E-08	3.0888E-09	2.0147E-06	2.4772E-06
1.1063E-08	2.0448E-08	2.5480E-06	1.0977E-06
-3.0389E-08	-2.9664E-08	2.0025E-06	4.8140E-07
-1.3425E-08	1.0873E-08	1.7262E-06	5.9909E-07
-2.2322E-08	-9.6324E-09	1.3847E-06	-5.5687E-11
-3.4746E-08	-1.8326E-08	4.0996E-07	9.9963E-07
-2.9402E-08	7.2406E-09	1.4317E-06	1.0432E-06
3.6257E-09	3.8994E-09	9.4148E-08	1.2871E-06
