jMRUI Data Textfile

Filename: Export_to_jmrui.txt

PointsInDataset: 2048
DatasetsInFile: 1
SamplingInterval: 0.250000
ZeroOrderPhase: 0E0
BeginTime: 0E0
TransmitterFrequency: 1.2326E8
MagneticField: 2.8936E0
TypeOfNucleus:  
NameOfPatient:  
DateOfExperiment:  
Spectrometer:  
AdditionalInfo: 
SignalNames:  


Signal and FFT
sig(real)	sig(imag)	fft(real)	fft(imag)
Signal 1 out of 1 in file
2.5861E-06	7.1457E-08	-5.6762E-07	1.7779E-06
2.3033E-06	-4.7323E-07	1.7101E-06	7.8927E-07
1.4671E-06	-1.0989E-06	-1.8100E-08	1.4199E-07
8.0448E-07	-1.3872E-06	1.3345E-06	8.7149E-07
-2.1113E-07	-1.3029E-06	2.0778E-07	-5.4586E-07
-6.8690E-07	-8.9796E-07	7.3689E-08	9.8080E-07
-9.4354E-07	-3.3413E-07	2.2847E-07	9.6797E-07
-6.4554E-07	1.0992E-07	1.7969E-06	1.8615E-06
-3.1632E-07	2.5067E-07	2.1152E-06	-9.8885E-07
1.0807E-07	1.3460E-07	-2.0872E-07	-2.6162E-07
2.9710E-07	-9.6724E-08	6.2435E-07	6.0858E-07
2.9508E-07	-3.3516E-07	5.3667E-07	2.1948E-07
1.4612E-07	-4.6541E-07	1.5559E-07	7.4356E-07
-8.0711E-08	-4.4320E-07	1.0663E-06	1.3234E-06
-2.9613E-07	-3.0618E-07	1.3041E-06	5.1811E-07
-3.2454E-07	-1.5702E-07	1.6744E-06	9.0942E-07
-2.9941E-07	-8.1540E-08	2.1622E-06	-1.0770E-06
-1.8115E-07	-7.4081E-08	-6.3406E-07	-1.0780E-06
-1.5991E-07	-1.0905E-07	-1.7052E-07	1.3438E-06
-1.9339E-07	-1.3386E-07	1.3070E-06	7.5705E-07
-2.8579E-07	-1.7973E-07	9.3364E-07	8.8153E-08
-3.6705E-07	-2.9266E-08	5.7516E-07	-1.2444E-07
-3.9394E-07	1.4366E-07	-3.6535E-07	4.1836E-07
-3.6381E-07	2.2142E-07	4.2394E-07	1.5917E-06
-2.3835E-07	2.6350E-07	1.0670E-06	9.2907E-07
-1.0354E-08	2.1860E-07	6.4072E-07	1.0654E-06
4.2320E-08	6.5932E-08	1.2606E-06	1.7124E-06
8.2156E-08	-4.4426E-08	2.3138E-06	9.8213E-07
-2.1607E-09	-1.0389E-07	1.9328E-06	1.5611E-07
-1.8568E-07	-7.2576E-08	1.7895E-06	-3.6087E-07
-3.0010E-07	5.1143E-08	5.0732E-07	-2.6255E-07
-2.6516E-07	2.7186E-07	1.2925E-06	6.5124E-07
-2.2626E-07	4.2345E-07	1.0116E-06	-3.7319E-07
-4.3761E-08	4.1971E-07	5.1532E-07	5.2069E-07
1.2190E-07	3.6648E-07	1.2083E-06	8.8480E-07
2.8241E-07	2.1770E-07	2.1962E-06	-6.9941E-08
2.6180E-07	3.9287E-08	3.4487E-07	-1.0805E-06
1.7787E-07	-4.6934E-08	4.0659E-07	5.8085E-07
7.3390E-08	-7.6448E-08	2.6378E-07	1.1613E-07
4.7655E-08	4.0129E-08	1.1545E-06	1.4154E-06
3.2772E-08	6.9377E-08	1.3517E-06	-6.7161E-07
1.3268E-07	7.5600E-08	2.6875E-07	5.0444E-07
1.6340E-07	4.8454E-08	5.2731E-07	-2.6834E-07
2.3886E-07	-3.5109E-08	-2.9761E-07	1.5767E-06
2.1227E-07	-1.4819E-07	1.8508E-06	9.9369E-07
1.6235E-07	-2.5951E-07	9.1898E-07	4.0102E-07
-5.8178E-09	-2.3200E-07	1.1686E-06	2.6781E-07
-1.2701E-07	-2.1281E-07	6.1907E-07	6.0210E-07
-1.7900E-07	-1.1835E-07	1.0776E-06	3.5415E-07
-7.8547E-08	-4.5512E-08	6.6195E-07	9.1550E-07
-6.7106E-08	1.8934E-08	1.6785E-06	6.5863E-08
1.8918E-08	1.4149E-08	-2.4114E-07	1.9791E-08
3.6509E-08	2.4847E-09	6.8047E-07	1.6353E-06
9.0044E-09	-5.6096E-08	1.5484E-06	7.4550E-07
-2.8915E-08	-9.5206E-08	7.7508E-07	1.7701E-07
-1.0496E-07	-6.7591E-08	5.5558E-07	1.3034E-06
-1.4392E-07	-7.7124E-08	1.5230E-06	1.0747E-06
-1.1035E-07	2.9420E-08	1.8982E-06	9.7933E-07
-3.1704E-08	1.8800E-08	1.8072E-06	-1.0015E-06
3.2422E-08	1.0761E-08	-6.6953E-07	5.0853E-07
6.2133E-08	-7.5024E-08	1.7282E-06	1.3253E-06
8.4826E-08	-1.2582E-07	6.8239E-07	-2.6864E-08
-1.1975E-08	-1.4255E-07	7.3443E-07	1.0462E-06
-1.1327E-07	-1.3996E-07	8.0318E-07	1.1626E-06
-1.6297E-07	-7.1416E-08	1.8340E-06	1.3928E-06
-2.1515E-07	2.8010E-08	1.9877E-06	5.0221E-07
-2.2671E-07	1.2060E-07	1.7950E-06	-3.5529E-07
-9.2147E-08	1.7617E-07	2.4112E-07	2.5735E-07
-8.9785E-09	1.5283E-07	1.9785E-06	9.3051E-07
2.7866E-08	6.8898E-08	9.2070E-07	-7.5182E-07
-1.5728E-08	3.4237E-08	4.8252E-07	6.6493E-07
-4.1923E-08	-3.3581E-08	7.3472E-07	5.5023E-07
-5.5953E-08	5.6441E-08	1.2101E-06	9.1923E-07
-1.2643E-07	7.9284E-08	9.1715E-07	4.2286E-07
-8.2827E-08	1.2558E-07	1.7280E-06	9.4089E-07
3.8042E-08	1.5552E-07	9.8734E-07	-7.8577E-07
4.7317E-08	1.0227E-07	2.4516E-07	1.0710E-06
1.0211E-07	4.8083E-08	1.2406E-06	8.5001E-08
7.2438E-08	5.1765E-08	-3.2714E-08	1.0859E-06
-6.2880E-10	-4.5340E-08	1.7107E-06	1.0103E-06
-4.5805E-08	7.3822E-09	4.4026E-07	5.4554E-07
-6.6070E-08	3.0107E-08	1.7758E-06	1.5903E-06
-4.3290E-08	1.1240E-07	1.7575E-06	-4.5431E-07
3.3662E-08	1.7465E-07	1.8434E-07	1.3928E-07
1.0689E-07	1.2899E-07	3.6811E-07	1.0004E-06
1.8908E-07	7.7539E-08	1.0185E-06	1.6109E-06
2.0823E-07	2.5670E-08	1.9203E-06	5.9883E-07
1.5911E-07	-9.0551E-08	3.5932E-07	2.7712E-07
1.0498E-07	-1.4969E-07	1.1746E-06	2.0317E-06
2.7942E-09	-1.4581E-07	2.3225E-06	1.5909E-07
-1.3915E-07	-9.0702E-08	3.7273E-08	4.3839E-07
-1.0697E-07	1.0043E-08	1.8950E-06	2.2033E-06
-7.7928E-08	9.9936E-08	2.4362E-06	-2.5869E-07
1.4611E-08	1.0936E-07	9.7959E-07	2.0635E-07
1.2271E-07	1.1158E-07	1.1775E-06	-1.7896E-07
2.0565E-07	2.9559E-08	-1.2463E-07	1.1501E-06
2.0154E-07	-7.0450E-08	2.5712E-06	1.5008E-06
1.2495E-07	-1.1529E-07	1.1705E-06	-1.0458E-06
4.8099E-08	-1.1640E-07	-9.3426E-08	9.6517E-07
6.3318E-09	-1.2273E-07	8.3049E-07	1.4751E-06
-9.4694E-08	-9.5270E-08	1.9208E-06	1.9984E-06
-5.9940E-08	-3.5455E-08	2.8385E-06	-5.2861E-08
-6.7199E-08	-3.9793E-08	6.5215E-07	-4.1740E-07
-6.8179E-08	3.0301E-09	8.0276E-07	1.2301E-06
-6.2713E-08	-2.2943E-08	2.1444E-06	9.0131E-07
-1.9499E-08	-3.8622E-08	1.5109E-06	-3.5845E-07
-7.8910E-08	-1.4089E-08	1.0146E-06	6.8508E-07
-1.7608E-08	2.1327E-09	1.8050E-06	-3.3155E-07
-7.6224E-08	1.1763E-08	-9.4248E-08	-4.3178E-08
-2.3687E-08	3.8398E-08	8.9648E-07	1.0647E-06
-1.2808E-08	1.0277E-07	4.8989E-07	8.8403E-07
2.7941E-08	6.4857E-08	1.9275E-06	1.6932E-06
2.5375E-08	-1.0526E-08	1.7716E-06	-2.7644E-07
2.9922E-08	4.6087E-09	9.9536E-07	6.4568E-07
-1.9337E-08	-1.0148E-08	1.4248E-06	-5.3624E-08
-4.4103E-08	-3.1329E-08	5.1315E-07	3.8970E-07
-5.9148E-08	-6.0201E-09	8.6991E-07	5.3936E-07
-8.1647E-08	4.7254E-08	6.6082E-07	1.0435E-06
-2.5893E-08	8.5792E-08	1.5354E-06	7.9199E-07
1.6782E-08	1.0594E-07	9.0204E-07	4.5408E-07
4.6329E-08	9.8326E-08	1.1187E-06	6.6427E-07
1.0300E-07	9.5722E-08	4.7996E-07	7.0951E-07
6.7986E-08	2.1280E-08	1.4222E-06	1.7970E-06
4.4950E-08	-3.3369E-08	2.2117E-06	6.4150E-08
1.9786E-08	-4.5845E-08	3.5864E-07	7.6948E-08
2.2187E-08	-2.8762E-08	1.1399E-06	1.2182E-06
-1.6595E-08	1.4006E-08	1.0966E-06	2.6653E-07
-2.9776E-08	1.8214E-08	7.0830E-07	1.1090E-06
-2.6546E-09	4.5019E-08	1.3437E-06	8.1399E-07
1.5775E-08	5.0398E-08	1.0251E-06	9.5992E-07
5.8847E-08	5.6234E-08	1.5403E-06	7.1826E-07
5.1051E-08	3.4821E-08	1.0376E-06	3.9315E-07
4.5755E-08	6.3367E-08	5.7852E-07	4.0815E-07
8.1072E-09	1.5473E-08	2.4355E-09	1.7898E-06
3.0823E-08	-1.7249E-08	2.2266E-06	2.2361E-06
8.9413E-08	3.3080E-08	1.9554E-06	3.6664E-07
8.0004E-08	-1.5165E-08	1.4774E-06	1.0983E-06
3.1276E-08	-3.4878E-08	1.9855E-06	4.0525E-07
9.9281E-08	-3.5916E-08	1.2062E-06	4.1146E-07
2.9003E-08	-1.0654E-07	1.4437E-06	4.7493E-07
2.5434E-09	-1.1657E-07	7.8243E-07	4.5009E-07
-2.1411E-08	-9.9003E-08	1.2538E-06	1.3571E-06
-5.5678E-08	-5.1716E-08	1.8306E-06	3.3038E-07
-3.0315E-08	-3.9723E-08	5.3376E-07	5.4180E-07
-3.6968E-08	5.5717E-09	1.5408E-06	1.4021E-06
-8.6924E-09	3.3672E-08	1.3022E-06	3.0507E-07
4.1774E-08	3.1856E-09	1.0344E-06	1.4464E-06
3.0836E-08	-2.0609E-08	1.9699E-06	8.3968E-07
1.2245E-08	-2.8401E-08	1.5667E-06	9.8404E-07
8.5360E-09	-6.8004E-08	2.4349E-06	2.8016E-07
-2.3804E-08	-6.7981E-08	1.1416E-06	-3.2778E-07
-6.3295E-08	-3.7242E-08	1.0727E-06	3.5773E-07
-3.9898E-08	-9.7339E-09	1.0654E-06	2.7127E-07
-4.0100E-08	1.6174E-09	5.9510E-07	-7.5727E-08
-4.2330E-08	2.4367E-08	-3.4747E-07	1.6888E-06
-3.3986E-08	3.4607E-09	2.6376E-06	1.9412E-06
-7.0022E-09	3.4937E-08	1.3312E-06	-5.9402E-07
1.2073E-08	-2.1261E-09	5.4220E-07	1.1480E-06
3.4761E-10	-2.7467E-08	1.1051E-06	9.7647E-07
2.3365E-08	-2.2490E-08	1.4536E-06	1.4419E-06
3.8614E-08	-2.4113E-08	1.6346E-06	7.2961E-07
1.0554E-08	-5.2085E-08	1.8252E-06	1.0580E-06
2.4815E-08	-1.8233E-08	1.7972E-06	-1.4361E-08
5.3794E-08	-1.5220E-09	1.2912E-06	3.2403E-07
-1.5443E-08	-8.0000E-09	7.6773E-07	-3.1181E-07
-3.9653E-08	4.7073E-09	7.2344E-08	1.3714E-06
-4.7179E-08	3.9672E-08	1.7860E-06	1.2323E-06
-3.2324E-08	3.6449E-08	1.1939E-06	1.6323E-07
-4.6284E-08	3.7183E-08	1.5051E-07	7.9385E-07
-1.6663E-08	-2.8405E-09	1.1285E-06	2.0883E-06
1.2214E-08	4.3672E-08	1.7913E-06	9.7804E-07
8.6293E-08	4.2818E-08	1.7727E-06	1.2288E-06
1.7573E-08	5.5580E-08	1.5864E-06	-2.1688E-07
9.0268E-08	2.8462E-08	2.3942E-07	1.3813E-06
1.0838E-07	-7.6374E-09	2.0721E-06	1.1439E-06
4.8431E-08	-2.6670E-08	8.9647E-07	7.2473E-07
3.8398E-08	-4.3687E-08	1.5519E-06	1.3191E-06
1.4813E-08	6.8360E-09	1.5432E-06	1.1357E-06
5.1613E-08	-2.8004E-08	2.0870E-06	6.6541E-07
7.1793E-08	-2.9343E-08	1.0702E-06	5.0267E-07
7.3604E-08	-4.2145E-08	1.7082E-06	9.9504E-07
2.0213E-08	-3.7311E-08	1.2362E-06	4.0427E-07
4.0201E-08	-2.5880E-08	1.3911E-06	1.1219E-06
5.6396E-08	-5.3159E-08	1.6771E-06	4.4200E-07
-4.1898E-09	-4.2674E-08	9.9372E-07	5.8061E-07
4.4430E-08	-1.1031E-07	1.3264E-06	8.5200E-07
-1.4447E-08	-1.1488E-07	8.5143E-07	6.1502E-07
-1.5109E-08	-4.7069E-08	1.1552E-06	1.5966E-06
-5.6936E-08	-3.2312E-08	1.6571E-06	7.6817E-07
-2.8050E-08	-1.1919E-08	1.0996E-06	1.1685E-06
-6.5278E-08	1.2872E-08	1.3079E-06	1.1588E-06
-7.2923E-08	5.4279E-09	1.9398E-06	2.1324E-06
-8.8062E-08	1.5304E-08	2.9574E-06	-2.0249E-07
-1.7736E-08	6.2763E-10	2.0986E-07	7.1179E-07
-1.9487E-08	-3.2765E-08	2.7642E-06	1.4028E-06
6.8233E-09	-1.4240E-08	1.0837E-06	-3.0305E-07
1.6871E-08	7.8461E-09	1.4909E-06	1.5209E-06
1.8092E-08	3.7095E-08	1.9040E-06	4.6261E-07
-1.1162E-09	2.6678E-08	1.8507E-06	5.4459E-07
1.5502E-08	6.0603E-09	1.1521E-06	3.5035E-08
-2.3524E-08	-2.2978E-08	1.3495E-06	9.3326E-07
4.5952E-08	-6.6005E-09	1.0735E-06	9.3078E-08
1.9658E-08	2.6035E-08	6.0936E-07	1.6337E-06
5.3704E-08	-5.2706E-10	2.4762E-06	1.3296E-06
-2.0847E-08	-2.9937E-09	1.6252E-06	-4.1181E-07
-2.7116E-08	-1.5556E-08	-7.6701E-08	1.0051E-06
1.8198E-08	-1.4467E-08	1.7747E-06	2.4142E-06
