jMRUI Data Textfile

Filename: Export_to_jmrui.txt

PointsInDataset: 2048
DatasetsInFile: 1
SamplingInterval: 0.250000
ZeroOrderPhase: 0E0
BeginTime: 0E0
TransmitterFrequency: 1.2326E8
MagneticField: 2.8936E0
TypeOfNucleus:  
NameOfPatient:  
DateOfExperiment:  
Spectrometer:  
AdditionalInfo: 
SignalNames:  


Signal and FFT
sig(real)	sig(imag)	fft(real)	fft(imag)
Signal 1 out of 1 in file
2.2523E-06	1.1687E-07	1.5671E-06	-3.9265E-07
1.5427E-06	-2.9601E-07	1.0903E-06	2.3856E-07
1.0124E-06	-6.4846E-07	4.7878E-07	-9.6170E-07
5.9217E-07	-8.9746E-07	-7.4065E-08	1.2896E-06
-9.4131E-08	-8.6697E-07	1.6339E-06	1.3095E-08
-4.5151E-07	-5.9514E-07	-3.5585E-07	3.8178E-07
-6.2617E-07	-2.6426E-07	1.3848E-06	1.7038E-06
-4.5589E-07	-2.8198E-08	1.7977E-06	-2.5332E-08
-1.8846E-07	9.7078E-08	8.0194E-07	1.5958E-07
1.2631E-07	2.4204E-08	1.1681E-06	1.4276E-07
2.4061E-07	-1.1125E-07	4.2052E-07	2.5866E-07
2.2575E-07	-2.8801E-07	1.1701E-06	4.7528E-07
7.0701E-08	-3.6960E-07	-1.5586E-07	2.0653E-07
-7.1179E-08	-3.7095E-07	1.0211E-06	2.1436E-06
-2.3261E-07	-2.3129E-07	1.7400E-06	6.4682E-07
-3.0365E-07	-1.2418E-07	1.9909E-06	1.1873E-06
-2.0297E-07	-3.9233E-08	2.1319E-06	-7.8464E-07
-1.3808E-07	-5.1172E-08	5.6788E-07	5.8245E-09
-1.3471E-07	-7.8065E-08	1.0098E-06	2.1201E-07
-8.7630E-08	-1.3102E-07	1.3542E-06	5.5036E-07
-2.0866E-07	-9.1250E-08	8.3572E-07	-1.1046E-06
-2.9959E-07	-5.8632E-08	-8.6824E-07	1.3690E-06
-3.3292E-07	2.4700E-09	2.0115E-06	1.4176E-06
-2.6482E-07	1.2560E-07	9.3967E-07	3.2584E-07
-1.6948E-07	1.3567E-07	1.5801E-06	6.2772E-07
-4.0191E-08	1.5703E-07	5.8660E-07	-9.5031E-08
-3.3523E-08	6.3521E-08	3.5111E-07	1.0183E-06
2.8052E-08	-3.6880E-09	6.6518E-07	1.6753E-06
-4.1317E-08	-3.6580E-08	2.2787E-06	1.8444E-06
-1.2763E-07	-3.2537E-08	2.2338E-06	-1.2293E-07
-1.9784E-07	7.4214E-08	6.2743E-07	4.2922E-07
-2.1458E-07	2.0879E-07	1.6589E-06	1.4496E-06
-1.3141E-07	3.1540E-07	1.8966E-06	2.2268E-07
1.2368E-08	2.9630E-07	1.0750E-06	9.2983E-07
9.7904E-08	2.6262E-07	2.1612E-06	9.4445E-07
1.9187E-07	9.8609E-08	1.7936E-06	5.8135E-07
1.6835E-07	2.7440E-08	2.4998E-06	4.8349E-07
9.3221E-08	-3.9592E-08	1.7447E-06	-3.4038E-07
6.6129E-08	-3.1101E-08	1.9144E-06	3.6370E-07
1.1253E-08	-1.3645E-08	1.8654E-06	-7.4085E-07
2.7701E-08	7.1403E-08	8.7621E-07	-6.2474E-08
5.4271E-08	1.4139E-07	1.4250E-06	1.0730E-07
1.6229E-07	3.5760E-08	1.2066E-06	2.4963E-07
1.9376E-07	3.5731E-09	1.8199E-06	-6.3242E-08
1.3813E-07	-1.5204E-07	7.6138E-07	-3.4742E-07
1.1285E-07	-1.7065E-07	1.3631E-06	7.7046E-07
-3.1434E-08	-2.5371E-07	1.9904E-06	-4.3850E-07
-7.1637E-08	-1.9142E-07	9.3266E-07	-9.4093E-07
-6.6219E-08	-1.3855E-07	-9.6095E-08	-4.3849E-07
-4.5455E-08	-4.0126E-08	2.5421E-10	1.0222E-06
1.2246E-08	4.7716E-08	1.3046E-06	1.1356E-06
6.9990E-09	3.6037E-08	1.6018E-06	-5.7237E-08
7.1859E-08	-1.5400E-08	-2.4188E-07	-3.5354E-07
5.2418E-08	-3.9469E-08	-1.6883E-07	2.4351E-06
2.8997E-08	-9.0682E-08	2.8075E-06	1.9536E-06
-6.3536E-08	-1.0952E-07	2.3577E-06	-2.6933E-07
-4.5389E-08	-8.4569E-08	1.1381E-06	-2.3967E-07
-6.8980E-08	3.9257E-09	7.3494E-07	1.7068E-07
-5.9434E-08	-3.8306E-08	4.6870E-07	9.2926E-07
-1.3401E-08	7.8879E-09	1.5393E-06	1.6693E-06
-3.5445E-10	-4.5168E-08	2.3489E-06	6.1783E-07
4.4825E-08	-4.3372E-08	1.8754E-06	-7.3882E-08
-1.3472E-08	-7.4646E-08	1.1192E-06	-3.4016E-07
-4.5222E-08	-9.0164E-08	4.7949E-07	4.4481E-07
-1.3296E-07	-3.0981E-08	7.6587E-07	1.2185E-06
-1.9712E-07	-2.2466E-08	1.7906E-06	1.7347E-06
-1.2070E-07	9.2063E-08	2.6362E-06	6.3459E-07
-1.0438E-07	1.0798E-07	2.1234E-06	1.1499E-07
-5.9451E-08	8.6098E-08	2.0028E-06	-1.8582E-07
-6.9820E-08	9.5589E-09	1.6414E-06	-2.1149E-07
-3.2467E-08	2.8011E-08	1.4464E-06	-5.6264E-07
-8.2258E-08	2.8523E-08	6.4303E-07	-9.1165E-08
-7.6398E-08	6.8237E-08	1.1060E-06	3.9557E-07
-3.6751E-08	7.4865E-08	1.2253E-06	3.3242E-07
-3.3830E-08	8.3932E-08	1.4698E-06	-1.2509E-07
1.8459E-08	9.2879E-08	2.0720E-07	-2.5970E-07
6.4886E-08	7.7269E-08	3.6670E-07	1.5972E-06
8.4601E-08	1.2826E-08	2.3404E-06	1.1613E-06
4.5782E-08	-1.8469E-08	1.5066E-06	-4.6424E-07
4.2784E-09	-3.4635E-08	7.1236E-07	7.8634E-07
-9.2159E-08	-2.8708E-08	1.8621E-06	5.4483E-07
-5.3225E-08	6.1022E-08	1.0527E-06	1.3082E-07
-7.1426E-08	6.3202E-08	1.2378E-06	7.4019E-07
-1.4766E-08	1.1357E-07	1.4325E-06	8.1599E-07
1.0675E-07	6.2948E-08	2.2824E-06	5.8725E-07
1.9399E-07	8.8271E-08	1.6971E-06	-5.7744E-07
1.4770E-07	2.2482E-09	1.0563E-06	5.3003E-08
1.7004E-07	-3.6021E-08	1.1781E-06	-1.4984E-07
4.0407E-08	-1.1905E-07	4.9558E-07	4.7304E-07
1.8851E-08	-1.0915E-07	1.7463E-06	9.7947E-07
-1.0046E-07	-8.0049E-08	1.4281E-06	-6.0243E-07
-3.6588E-08	3.0265E-08	4.2525E-08	9.7070E-07
-3.6029E-08	6.6828E-08	2.6502E-06	1.4702E-06
3.1861E-09	7.7340E-08	2.0095E-06	-1.0214E-06
7.1511E-08	3.1313E-08	1.0473E-06	3.5291E-08
1.1238E-07	-2.6845E-08	1.3650E-06	-8.2509E-07
1.1656E-07	-5.8634E-08	-1.2914E-08	-2.3790E-07
9.4973E-08	-9.5760E-08	1.4669E-07	1.8417E-07
5.0534E-08	-7.9604E-08	-2.4677E-07	1.7675E-06
1.1724E-08	-7.2507E-08	2.4699E-06	1.5866E-06
-2.7177E-08	-6.8259E-08	1.2569E-06	-1.3717E-07
-7.0279E-08	-1.8130E-08	1.6425E-06	8.4194E-07
-3.5426E-08	3.8246E-09	1.3080E-06	-5.1057E-07
-2.1282E-08	-2.5362E-09	5.9331E-07	3.9684E-07
-1.1116E-08	-3.6825E-08	8.3551E-07	4.9553E-07
-3.7933E-08	-4.5856E-08	1.2308E-06	5.5628E-07
-6.8577E-08	-2.6579E-08	3.6182E-07	1.2446E-07
-2.8534E-08	2.8367E-08	1.1303E-06	1.6194E-06
-4.2542E-08	5.9193E-09	1.4679E-06	-4.6423E-07
-5.4050E-08	6.3191E-08	-5.1584E-07	1.0393E-06
-2.3978E-08	6.7454E-08	1.5033E-06	1.8604E-06
1.7236E-08	2.0573E-08	1.4037E-06	6.1590E-07
2.9738E-08	2.5207E-08	7.7367E-07	1.2676E-06
1.4042E-09	-8.6705E-10	2.1393E-06	1.7272E-06
-5.3594E-09	-4.4253E-08	2.1704E-06	8.1012E-09
-3.0648E-09	7.9498E-09	1.2259E-06	3.0813E-07
-6.2093E-08	2.2533E-08	8.1736E-07	2.2963E-07
-2.6350E-08	3.2518E-08	9.5871E-07	1.7512E-06
-4.2095E-08	7.1383E-08	2.4573E-06	6.0985E-07
1.7824E-08	2.1329E-08	1.3056E-06	-2.2883E-08
7.8165E-08	5.7823E-08	6.0375E-07	7.6520E-08
5.2932E-09	7.4773E-08	2.3152E-07	1.8599E-06
1.0509E-07	4.0838E-08	2.2076E-06	1.7541E-06
4.0538E-08	2.5620E-10	2.0477E-06	1.0476E-06
6.6602E-09	3.6798E-09	2.3996E-06	5.6289E-07
1.8765E-08	1.0910E-09	1.9716E-06	1.5920E-07
1.1910E-08	2.7542E-08	1.1777E-06	-2.2766E-07
4.8869E-09	8.5920E-10	1.2324E-06	1.7126E-06
3.8393E-09	9.2534E-09	3.0550E-06	-4.7917E-07
9.2637E-09	3.1854E-08	-2.1745E-07	1.2110E-07
2.1461E-08	4.8874E-09	2.7307E-06	1.4612E-06
2.8226E-08	5.3265E-08	1.1828E-06	-1.2460E-06
5.9179E-08	-1.9347E-09	2.4990E-07	1.1606E-06
4.1302E-08	1.0443E-08	1.8326E-06	1.3350E-06
7.0366E-08	2.6515E-08	2.2858E-06	3.2025E-08
6.7463E-08	-2.2583E-08	6.0139E-07	-8.3779E-08
3.6258E-08	9.2298E-11	1.2614E-06	1.1362E-06
9.2901E-08	-2.3962E-08	1.3985E-06	8.1258E-07
3.1537E-08	-7.4599E-08	2.1893E-06	7.3108E-07
5.9116E-08	-4.0690E-08	1.3048E-06	-1.9892E-08
-1.7684E-09	-8.8823E-08	1.8544E-06	6.5070E-07
-3.6453E-08	-3.0856E-08	1.1111E-06	-4.2132E-07
-1.8455E-08	-4.6179E-08	1.1280E-06	9.0482E-07
-7.7671E-08	-2.5887E-08	1.2635E-06	-2.8860E-07
-9.7090E-09	3.0068E-08	3.3983E-08	9.9389E-07
2.5916E-08	8.0569E-09	1.4374E-06	1.7475E-06
-4.1974E-08	-2.4212E-08	2.0487E-06	1.1926E-06
1.4233E-08	-1.8634E-08	2.4024E-06	5.0932E-07
-7.9300E-09	-2.3841E-08	1.4991E-06	-5.0913E-07
1.0188E-08	-2.9577E-08	4.1976E-07	1.0768E-06
-1.9562E-09	-2.7292E-08	2.6271E-06	1.1883E-06
-1.1299E-08	-6.1077E-08	1.5071E-06	-5.0113E-07
-2.1631E-08	2.6737E-08	1.0993E-06	6.4763E-07
-4.8551E-09	5.7652E-09	1.2146E-06	6.8159E-07
-2.4264E-08	1.7425E-08	2.0209E-06	8.8356E-07
-2.0766E-09	1.4371E-08	1.2672E-06	-7.2753E-08
3.0455E-09	3.6472E-08	1.6284E-06	1.2803E-06
5.8258E-09	-2.0463E-08	2.0993E-06	-3.1071E-07
1.1769E-08	1.1841E-08	8.0775E-07	4.9555E-07
4.4137E-08	1.0403E-08	2.0160E-06	7.3418E-07
4.3157E-08	-1.5410E-09	1.7674E-06	-4.2138E-07
2.7891E-08	1.6449E-09	4.2937E-07	-6.4624E-08
3.9862E-08	-1.1949E-10	1.1496E-06	1.0744E-06
6.2707E-08	-3.6588E-08	1.1374E-06	2.4284E-07
-2.7888E-08	-6.6760E-09	1.0609E-06	1.3734E-06
-8.9556E-09	1.7710E-08	2.1483E-06	5.3832E-07
-6.6252E-08	2.2964E-08	1.1896E-06	1.0186E-07
-2.1564E-08	-3.1291E-08	7.8982E-07	7.4783E-07
-2.9434E-08	7.2700E-08	1.4860E-06	1.7355E-06
-5.3126E-10	6.7881E-08	2.8806E-06	7.6087E-07
4.7775E-08	7.0976E-08	1.8226E-06	-5.7927E-07
8.9648E-08	5.1369E-08	9.0756E-07	6.0348E-07
8.0104E-08	7.2412E-08	2.3059E-06	7.2722E-07
1.1553E-07	1.4808E-08	1.8708E-06	-2.4740E-07
1.2732E-07	-6.9137E-08	2.0223E-06	-5.1158E-07
6.4230E-08	-5.6562E-08	2.5417E-07	-1.2191E-06
5.0154E-08	-4.0394E-08	6.1446E-08	7.9302E-07
-2.1730E-09	-5.6742E-08	4.9937E-07	8.7739E-07
2.4359E-08	-4.9310E-08	1.7994E-06	1.4642E-06
-2.8575E-08	-1.9684E-08	1.0725E-06	-6.9357E-07
6.6200E-08	2.6967E-09	7.1267E-08	1.8638E-06
2.7710E-08	-2.6808E-08	2.3962E-06	1.1324E-06
4.4490E-08	1.2206E-08	1.7216E-06	2.8133E-07
1.9150E-09	-1.3084E-08	1.0348E-06	-2.6084E-07
3.2635E-08	-3.4835E-08	4.6471E-07	1.3191E-06
-9.0734E-09	-1.0497E-07	1.5675E-06	9.4930E-07
-7.1547E-08	-7.7741E-08	1.6622E-06	1.7149E-06
-4.5470E-08	-3.1039E-08	3.0227E-06	-3.1435E-07
-4.2648E-08	-5.9834E-08	3.0119E-07	-1.5959E-07
-4.1148E-08	1.5309E-08	1.7941E-06	1.0050E-06
-4.3281E-08	3.2919E-09	1.4292E-06	-2.2301E-07
-1.7381E-08	-2.2761E-08	6.1255E-07	4.2186E-08
-3.8909E-08	-6.1507E-08	6.5984E-07	1.4327E-06
-4.1139E-08	2.2565E-08	2.1762E-06	1.8850E-07
-4.5360E-08	7.6931E-09	-3.7512E-07	2.6293E-07
3.1455E-08	1.2848E-08	1.5638E-06	2.3115E-06
1.2711E-08	-2.5884E-08	1.8640E-06	2.1568E-07
1.1110E-08	-1.5798E-08	9.2280E-07	9.7295E-07
-4.4221E-08	1.5498E-08	1.5103E-06	1.0948E-06
-3.1050E-08	2.1566E-08	1.4672E-06	1.1352E-06
-2.9608E-08	4.3068E-09	2.1935E-06	1.3575E-06
1.5045E-09	-3.9706E-08	2.5076E-06	-3.6689E-08
-4.0567E-08	1.4543E-09	1.0028E-06	2.1797E-07
-1.8828E-08	2.4122E-08	2.2133E-06	9.5836E-07
9.0273E-09	-3.4386E-08	2.0008E-06	-7.7913E-07
1.6551E-09	-5.7287E-09	4.6170E-07	-2.0674E-07
