jMRUI Data Textfile

Filename: Export_to_jmrui.txt

PointsInDataset: 2048
DatasetsInFile: 1
SamplingInterval: 0.250000
ZeroOrderPhase: 0E0
BeginTime: 0E0
TransmitterFrequency: 1.2326E8
MagneticField: 2.8936E0
TypeOfNucleus:  
NameOfPatient:  
DateOfExperiment:  
Spectrometer:  
AdditionalInfo: 
SignalNames:  


Signal and FFT
sig(real)	sig(imag)	fft(real)	fft(imag)
Signal 1 out of 1 in file
3.4824E-06	1.1909E-06	-3.5825E-06	-6.5295E-07
6.3832E-06	-4.1019E-07	-3.9088E-06	7.4143E-08
4.2167E-06	-2.6469E-06	-3.1786E-06	1.1990E-06
2.4670E-06	-3.6747E-06	-2.8888E-06	2.2389E-07
-3.8924E-07	-3.7732E-06	-3.9584E-06	1.3042E-06
-1.9678E-06	-2.6161E-06	-2.6353E-06	1.9924E-06
-2.9961E-06	-1.1847E-06	-2.7291E-06	1.6207E-06
-2.4074E-06	3.4344E-07	-2.1659E-06	2.3119E-06
-1.4742E-06	1.1662E-06	-1.6171E-06	1.6357E-06
2.6333E-08	1.4297E-06	-1.8482E-06	1.7951E-06
9.9671E-07	8.7617E-07	-1.0677E-06	1.6598E-06
1.5570E-06	8.7263E-08	-1.2712E-06	6.2575E-07
1.2445E-06	-6.8619E-07	-2.3179E-06	8.3780E-07
7.1765E-07	-1.2452E-06	-1.9546E-06	1.5291E-06
-7.6399E-08	-1.3085E-06	-2.2490E-06	1.0444E-06
-5.2211E-07	-1.0963E-06	-2.4825E-06	2.5093E-06
-8.6462E-07	-6.9730E-07	-7.3448E-07	2.0633E-06
-8.3861E-07	-3.8591E-07	-1.9073E-06	1.3869E-06
-8.6357E-07	-1.5937E-07	-9.6555E-07	2.8061E-06
-6.7117E-07	1.0335E-08	-1.3626E-08	1.0200E-06
-7.4542E-07	1.3863E-07	-1.2118E-06	8.8963E-07
-6.3675E-07	3.0079E-07	-9.6441E-07	5.7947E-07
-6.7991E-07	4.3201E-07	-2.3794E-06	8.5960E-07
-4.0946E-07	5.3545E-07	-1.2453E-06	1.9690E-06
-1.6937E-07	4.7711E-07	-1.3897E-06	7.4956E-07
1.0856E-07	3.4082E-07	-1.7344E-06	1.5140E-06
2.6525E-07	7.8422E-08	-1.7678E-06	1.0575E-06
2.5996E-07	-1.7099E-07	-2.1297E-06	2.2890E-06
4.2138E-08	-3.3758E-07	-6.6351E-07	2.1137E-06
-2.3168E-07	-2.8434E-07	-1.0131E-06	1.3728E-06
-5.7222E-07	-6.3689E-08	-9.0311E-07	1.6013E-06
-6.2532E-07	2.7284E-07	-6.7723E-07	7.8006E-07
-6.0095E-07	5.5174E-07	-2.0918E-06	7.0354E-07
-3.3112E-07	7.3420E-07	-1.5491E-06	2.0085E-06
-6.2599E-09	7.4421E-07	-1.3713E-06	1.0630E-06
2.3020E-07	5.9866E-07	-1.7000E-06	1.8321E-06
4.6133E-07	4.2404E-07	-1.5783E-06	1.2061E-06
4.5729E-07	2.6173E-07	-2.1089E-06	2.6701E-06
3.9399E-07	1.5184E-07	-1.4889E-07	2.2214E-06
3.8466E-07	3.6370E-08	-8.5091E-07	1.3460E-06
3.6113E-07	5.6643E-08	-5.7196E-07	1.0669E-06
4.2534E-07	2.0702E-08	-1.6431E-06	5.4546E-07
4.2637E-07	-9.5770E-08	-2.1755E-06	1.0837E-06
4.1234E-07	-2.8522E-07	-2.7553E-06	1.9368E-06
2.4976E-07	-4.3157E-07	-1.9485E-06	2.9836E-06
7.3311E-08	-5.2434E-07	-1.0829E-06	2.9598E-06
-2.0156E-07	-4.3633E-07	-5.4975E-07	2.2099E-06
-2.5561E-07	-2.0475E-07	-1.3677E-06	2.1491E-06
-2.9963E-07	3.1789E-08	-5.9803E-07	2.8637E-06
-1.1825E-07	2.3793E-07	-2.1677E-07	1.9620E-06
1.2543E-07	2.6886E-07	-5.0876E-07	1.9515E-06
3.2995E-07	1.7074E-07	-2.6499E-07	1.4400E-06
3.7384E-07	-1.1900E-07	-1.4464E-06	1.3076E-06
2.8735E-07	-3.6716E-07	-1.0199E-06	2.6645E-06
-1.4640E-08	-5.4091E-07	-3.4568E-07	1.9334E-06
-2.6533E-07	-4.4447E-07	-2.8272E-07	2.2162E-06
-4.3279E-07	-2.1551E-07	-3.5935E-08	8.4198E-07
-4.5774E-07	7.5768E-08	-1.5473E-06	1.6280E-06
-3.4388E-07	2.5393E-07	-3.8601E-07	1.7437E-06
-3.5433E-08	3.8968E-07	-1.4351E-06	1.7137E-06
1.6834E-07	2.6022E-07	-2.9045E-07	2.3090E-06
2.9785E-07	1.0676E-07	-8.1721E-07	1.5555E-06
2.1938E-07	-8.2231E-08	-2.9717E-07	2.2619E-06
1.0455E-07	-2.0341E-07	-1.9166E-07	1.3506E-06
-7.9593E-08	-2.3149E-07	-4.4796E-07	1.3717E-06
-2.0585E-07	-7.5199E-08	-9.1317E-07	1.1950E-06
-2.1997E-07	3.0068E-08	-8.1072E-07	1.8147E-06
-1.3680E-07	2.0832E-07	-6.9922E-07	1.4154E-06
-1.0255E-07	1.5456E-07	-1.0166E-06	1.9580E-06
6.2594E-08	7.7534E-08	3.6212E-08	2.1252E-06
9.5185E-08	1.3633E-08	7.9395E-08	7.4940E-07
4.7276E-08	-7.4055E-08	-9.7851E-07	9.7386E-07
-8.5701E-08	-5.6437E-08	-6.5476E-07	8.3393E-07
-1.5438E-07	4.4248E-08	-1.9680E-06	9.8748E-07
-1.3963E-07	1.0031E-07	-1.2328E-06	2.4045E-06
-5.6247E-08	1.7241E-07	-3.6538E-07	1.7638E-06
6.3891E-08	2.3029E-07	-5.2847E-07	9.6921E-07
1.6184E-07	2.0004E-07	-1.5845E-06	1.2366E-06
1.8664E-07	9.7597E-08	-6.4106E-07	1.7997E-06
1.7024E-07	-5.2583E-08	-1.2300E-06	5.3825E-07
3.0760E-08	-9.2381E-08	-2.2772E-06	1.5855E-06
-3.3039E-08	-2.2034E-08	-1.8695E-06	2.6985E-06
-9.0924E-08	5.4466E-08	-2.3375E-07	2.8775E-06
-7.8520E-08	1.6776E-07	-2.3636E-07	1.1847E-06
4.4517E-08	2.2777E-07	-1.0802E-06	1.4167E-06
1.3850E-07	1.8910E-07	-1.1546E-06	1.3325E-06
2.6741E-07	1.8551E-08	-1.5005E-06	1.6162E-06
3.2893E-07	-1.1368E-07	-1.6688E-06	1.8947E-06
1.8084E-07	-2.4497E-07	-1.3539E-06	2.6387E-06
2.1003E-08	-2.9783E-07	-3.8525E-07	2.5346E-06
-1.1925E-07	-2.1162E-07	1.4624E-07	1.1308E-06
-2.3322E-07	-7.2253E-08	-2.2087E-06	4.0052E-07
-1.5871E-07	1.2464E-07	-1.9937E-06	3.0924E-06
-4.6472E-08	2.5739E-07	-6.4621E-07	1.6584E-06
1.3029E-07	2.6686E-07	-2.0986E-06	2.3458E-06
2.5575E-07	2.4546E-07	-7.5510E-07	2.6828E-06
2.9866E-07	3.4305E-08	-1.0471E-06	2.4455E-06
2.9238E-07	-1.2894E-07	-1.8941E-07	1.9737E-06
1.5866E-07	-2.5442E-07	-1.6902E-06	1.5317E-06
-7.9823E-09	-2.4015E-07	-8.2234E-07	2.6168E-06
-9.7663E-08	-2.4487E-07	-1.6522E-06	1.2710E-06
-1.4008E-07	-1.9611E-07	-1.9731E-06	3.7533E-06
-1.4469E-07	-1.5241E-07	3.4353E-07	2.5512E-06
-1.2244E-07	-3.0545E-08	-1.5158E-06	1.8619E-06
-1.6528E-07	-5.8516E-08	-8.0687E-07	3.3070E-06
-1.3354E-07	4.7345E-08	1.4263E-07	2.4291E-06
-1.3006E-07	8.9440E-09	-2.8318E-07	1.2629E-06
-1.4831E-07	5.2695E-08	-1.9131E-06	1.6324E-06
-1.3001E-07	1.1253E-07	-1.2438E-06	2.9645E-06
2.4083E-08	1.4986E-07	-9.6409E-07	2.3946E-06
7.6536E-08	1.2160E-07	-9.8734E-07	2.7706E-06
1.2031E-07	7.1745E-08	-1.0693E-06	2.6525E-06
1.0795E-07	-7.0460E-08	-4.6999E-07	3.5938E-06
4.6533E-08	-1.3472E-07	5.9470E-07	2.0736E-06
-3.0173E-08	-1.4999E-07	-1.1824E-06	1.7362E-06
-1.1149E-07	-1.0318E-07	-7.6893E-07	3.0429E-06
-1.7243E-07	-7.8410E-08	-1.4645E-07	2.4720E-06
-1.7113E-07	4.6530E-08	-4.1846E-07	2.4099E-06
-1.3491E-07	1.0790E-07	-7.3912E-08	2.4139E-06
-1.7434E-08	1.5936E-07	-1.3275E-08	1.8012E-06
9.8023E-08	1.0027E-07	-7.7987E-07	1.5052E-06
1.4234E-07	1.1892E-08	-1.0282E-06	2.3371E-06
1.8371E-07	-8.9967E-08	-3.4474E-07	2.0539E-06
1.3111E-07	-1.3849E-07	-1.1355E-06	1.8474E-06
7.0533E-09	-1.3216E-07	-8.0776E-07	2.4956E-06
-1.1659E-07	-9.5531E-08	-6.9657E-07	1.9719E-06
-1.5038E-07	-2.1517E-09	-1.2377E-06	2.0124E-06
-9.8632E-08	4.4452E-08	-1.3096E-06	2.8088E-06
-3.9295E-08	1.0521E-07	-4.4252E-07	2.2989E-06
3.5443E-08	9.1194E-08	-2.1080E-06	2.5375E-06
3.5190E-08	5.3687E-08	8.9634E-08	4.2674E-06
9.6745E-08	1.8892E-08	6.9664E-08	1.2739E-06
1.1189E-08	-2.0355E-08	-1.4732E-06	2.9861E-06
5.9211E-09	-2.9883E-09	-1.2416E-07	2.6407E-06
-4.2578E-10	-6.3201E-09	-4.0873E-07	2.6760E-06
-1.7709E-09	4.2221E-09	-5.7065E-07	1.5931E-06
7.3757E-08	8.9222E-08	-1.4954E-06	3.4815E-06
9.1990E-08	8.1464E-08	7.4819E-07	2.1688E-06
1.2756E-07	-3.3957E-09	-1.9409E-06	2.1380E-06
1.3127E-07	-8.8260E-08	9.7912E-08	3.1967E-06
4.4728E-08	-1.7242E-07	-1.4419E-06	1.9799E-06
-1.3177E-08	-1.5062E-07	-2.7178E-07	3.6924E-06
-8.1363E-08	-1.2460E-07	-6.8331E-07	2.0071E-06
-1.6514E-07	-6.6105E-08	-4.4220E-07	3.5585E-06
-1.3379E-07	1.4880E-08	-3.0053E-07	1.7718E-06
-9.6371E-08	6.1904E-08	-1.3298E-06	3.4188E-06
-1.1563E-08	4.9385E-08	1.2020E-08	2.8151E-06
6.9818E-08	8.1350E-08	-8.5419E-07	3.2769E-06
5.9346E-08	7.1371E-09	6.0693E-07	3.0545E-06
1.1220E-07	-1.1550E-08	-4.7120E-07	2.1041E-06
6.0458E-08	-8.6975E-08	-5.9732E-07	3.1923E-06
-3.2175E-08	-1.1124E-07	3.2792E-07	3.0244E-06
-6.6421E-08	-8.4730E-08	4.9005E-08	2.1130E-06
-1.0318E-07	2.1835E-08	-5.3180E-07	2.5554E-06
-1.0971E-07	-8.4295E-09	-3.2733E-07	2.4366E-06
-9.1637E-08	5.2796E-08	-7.7488E-07	2.9059E-06
-2.5904E-08	8.2377E-08	-2.5241E-08	2.9683E-06
-3.5113E-08	5.9227E-08	-3.9419E-07	2.7218E-06
2.1954E-08	2.8513E-08	-1.8679E-07	2.9805E-06
4.1944E-08	3.8232E-08	-1.5085E-07	3.1245E-06
2.3544E-08	-5.1943E-08	5.1592E-07	2.8030E-06
5.4982E-08	-2.1733E-09	-2.4449E-07	2.5156E-06
1.6189E-08	-7.6440E-08	5.1516E-07	3.0587E-06
-2.8655E-09	-5.9174E-08	3.0453E-07	1.8209E-06
-2.7630E-08	-2.6356E-08	-4.5134E-07	2.3524E-06
-4.0018E-08	-3.2678E-09	-3.9269E-07	2.5203E-06
-7.5662E-08	-3.9282E-09	-3.4965E-07	3.0046E-06
-7.6012E-08	3.8079E-08	1.4542E-07	3.1251E-06
-6.3986E-08	7.3598E-08	8.7842E-07	2.7900E-06
-5.2799E-08	9.7783E-08	3.4968E-07	1.5894E-06
1.8559E-08	5.3367E-08	-5.5427E-07	2.4452E-06
5.7601E-08	6.6239E-08	3.1557E-07	2.7588E-06
6.0427E-08	3.1572E-08	5.6299E-07	2.0265E-06
1.0273E-07	7.7140E-09	-2.0388E-07	1.4490E-06
9.0310E-08	-6.2211E-08	-8.7324E-07	2.0854E-06
8.6124E-08	-2.2607E-08	-9.7786E-07	2.8094E-06
9.0028E-09	-4.0880E-08	5.2102E-07	3.6748E-06
-1.3597E-08	-3.9033E-08	1.0163E-06	9.6867E-07
2.5015E-09	-2.3578E-08	-1.8909E-06	1.9289E-06
3.2507E-08	-2.5539E-09	8.1722E-08	3.3703E-06
-5.6702E-09	6.2123E-09	-4.0090E-07	1.9291E-06
5.5633E-10	-2.0952E-08	-5.2074E-07	3.1966E-06
5.3116E-08	-4.2055E-08	3.2802E-07	2.7286E-06
6.7538E-08	-2.2834E-08	3.4772E-07	2.2975E-06
1.0649E-08	-8.8321E-08	-4.0103E-07	1.6930E-06
1.4181E-08	-4.3748E-08	-9.1031E-07	3.0631E-06
-2.4395E-08	-4.4522E-08	6.7603E-07	3.1138E-06
-4.4820E-08	-2.2872E-08	6.1752E-07	1.8400E-06
2.4065E-08	-4.1568E-08	-1.1319E-07	1.5551E-06
9.1840E-09	1.2505E-08	-6.9796E-07	1.7135E-06
-4.5515E-08	-1.8689E-08	-1.0925E-06	2.2151E-06
-2.5353E-08	-5.6079E-10	-8.4440E-07	2.9844E-06
-3.2231E-08	-4.5454E-08	-1.6847E-07	2.7958E-06
-1.0362E-07	9.3555E-09	-4.4526E-07	2.7556E-06
-7.3025E-08	6.7064E-09	2.5537E-07	2.9053E-06
-7.6954E-08	2.6704E-08	1.5375E-08	2.0303E-06
-3.6009E-08	1.8217E-08	-3.0857E-07	2.4655E-06
2.0460E-08	4.7682E-08	-1.7284E-07	2.1742E-06
4.5498E-08	-1.6638E-08	-4.0017E-07	2.4177E-06
2.7853E-08	2.3487E-08	-3.4958E-07	2.0231E-06
-1.5660E-08	-2.4368E-08	-1.1130E-06	2.7578E-06
-4.0201E-08	-1.9146E-08	3.9353E-07	3.2313E-06
-3.2106E-08	1.0897E-08	3.7931E-07	1.4342E-06
-3.8104E-08	1.1963E-08	-1.2485E-06	1.5490E-06
