jMRUI Data Textfile

Filename: Export_to_jmrui.txt

PointsInDataset: 2048
DatasetsInFile: 1
SamplingInterval: 0.250000
ZeroOrderPhase: 0E0
BeginTime: 0E0
TransmitterFrequency: 1.2326E8
MagneticField: 2.8936E0
TypeOfNucleus:  
NameOfPatient:  
DateOfExperiment:  
Spectrometer:  
AdditionalInfo: 
SignalNames:  


Signal and FFT
sig(real)	sig(imag)	fft(real)	fft(imag)
Signal 1 out of 1 in file
3.4783E-06	5.1696E-07	-1.3206E-06	-1.4038E-06
5.0714E-06	-7.4791E-07	-1.7924E-06	-5.9843E-08
3.4161E-06	-2.4938E-06	-1.7156E-06	-9.6930E-07
2.0739E-06	-3.3318E-06	-3.2871E-06	5.9430E-07
-1.3434E-07	-3.2820E-06	-1.3011E-06	1.6990E-06
-1.3742E-06	-2.4267E-06	-1.5680E-06	4.1616E-07
-2.2312E-06	-1.2751E-06	-1.8715E-06	2.0072E-06
-1.7800E-06	-2.3383E-08	-1.4219E-07	1.6830E-06
-1.0148E-06	6.8724E-07	-3.6352E-07	9.3839E-07
1.1062E-07	8.6056E-07	-3.6384E-07	4.1260E-07
8.4746E-07	4.9160E-07	-1.5013E-06	6.7090E-07
1.2759E-06	-9.2170E-08	-8.2630E-07	1.6668E-06
1.0731E-06	-8.1934E-07	-3.3366E-07	1.2138E-06
6.3026E-07	-1.1999E-06	-5.7949E-07	1.0266E-06
1.3275E-08	-1.2198E-06	-2.8293E-07	1.7434E-06
-3.5669E-07	-1.0938E-06	6.3078E-07	4.0134E-07
-6.2644E-07	-7.7783E-07	-1.3448E-06	6.1961E-07
-6.5014E-07	-4.8108E-07	2.6171E-07	1.7296E-06
-6.3238E-07	-3.0580E-07	8.0783E-10	3.4482E-07
-5.3650E-07	-1.5489E-07	1.4608E-08	4.7796E-07
-5.4609E-07	-7.0309E-08	-1.2502E-06	1.3420E-07
-5.3637E-07	8.4417E-08	-3.8337E-07	1.6810E-06
-5.1072E-07	1.3587E-07	-4.4354E-07	1.1250E-07
-3.7522E-07	2.3639E-07	-1.0134E-06	1.4935E-06
-1.5912E-07	2.5651E-07	-2.3073E-07	8.5750E-07
3.7346E-08	1.6923E-07	-7.4811E-07	1.1270E-06
1.2530E-07	2.0034E-08	-9.2454E-07	1.0113E-06
1.9581E-07	-1.7305E-07	-8.8909E-07	2.3153E-06
-2.0571E-08	-2.6052E-07	1.8669E-07	2.0403E-06
-1.3923E-07	-2.3013E-07	8.7918E-07	2.3339E-06
-4.2794E-07	-1.1683E-07	1.7271E-06	2.3353E-07
-4.6684E-07	1.5673E-07	-3.8195E-07	6.6624E-08
-4.7903E-07	3.5574E-07	-9.3986E-08	8.9934E-07
-2.4064E-07	5.5030E-07	7.3461E-08	9.6971E-07
-3.5101E-08	5.5102E-07	1.8588E-07	2.0533E-07
2.0665E-07	4.4270E-07	-1.0784E-06	1.0450E-06
2.9821E-07	2.8430E-07	8.6577E-07	1.7743E-06
3.4907E-07	1.3092E-07	7.6314E-07	-6.1212E-07
2.5012E-07	5.9677E-08	-1.5738E-06	-1.5273E-07
2.5182E-07	3.2547E-08	-8.9584E-07	1.7687E-06
2.1684E-07	-2.0800E-08	-5.7221E-08	7.4673E-07
2.8034E-07	-3.6712E-08	-9.6096E-07	1.1928E-06
3.2438E-07	-1.0584E-07	-2.7843E-07	1.3220E-06
2.4646E-07	-2.8993E-07	-6.7886E-07	1.6070E-06
1.6245E-07	-3.7221E-07	3.6445E-07	1.7161E-06
1.4227E-08	-3.9639E-07	4.9831E-08	9.5836E-07
-1.6824E-07	-3.7250E-07	-3.0489E-07	1.2292E-06
-2.2601E-07	-1.8921E-07	3.8185E-08	1.8946E-06
-2.0967E-07	4.8892E-09	9.1941E-07	8.7697E-07
-1.1402E-07	1.9793E-07	-5.5947E-07	7.4470E-07
4.5281E-08	1.8848E-07	1.2726E-07	1.7138E-06
1.8902E-07	6.6584E-08	4.8593E-07	1.4294E-06
2.1028E-07	-1.1300E-07	1.2006E-06	5.8730E-07
9.9493E-08	-2.5612E-07	-5.6416E-07	-5.9664E-09
-8.8591E-08	-3.6930E-07	1.5534E-07	1.4313E-06
-2.4925E-07	-2.8596E-07	-1.4089E-08	-3.0353E-08
-4.1496E-07	-1.5022E-07	-6.8517E-07	1.1959E-06
-3.7949E-07	2.0945E-08	2.1909E-08	6.9120E-07
-2.4448E-07	1.5751E-07	-5.9527E-07	9.3542E-07
-2.6633E-08	2.1636E-07	-4.3976E-07	8.5228E-07
7.8157E-08	1.5429E-07	-6.5598E-07	1.5349E-06
1.5973E-07	1.9465E-08	1.2106E-07	8.2713E-07
8.5153E-08	-1.4704E-07	-1.4826E-06	1.3071E-06
-3.1690E-08	-1.9293E-07	5.5810E-07	2.5078E-06
-1.5620E-07	-1.7358E-07	2.5927E-07	2.7119E-08
-2.2615E-07	4.0536E-09	-1.3581E-06	1.4146E-06
-2.7049E-07	1.3243E-07	-2.0666E-07	1.9860E-06
-1.4799E-07	1.8078E-07	3.2893E-08	1.5910E-06
-8.1589E-08	1.6475E-07	-2.3233E-07	1.3703E-06
-6.7144E-09	8.0120E-08	-6.7332E-08	1.7650E-06
2.0192E-08	-2.5102E-08	-3.4140E-07	1.4671E-06
-1.5302E-08	-6.6750E-08	6.0476E-07	2.5734E-06
-7.6186E-08	-9.7018E-08	7.6617E-07	-2.0174E-07
-1.3096E-07	2.4922E-08	-1.9095E-06	2.3120E-06
-1.1168E-07	9.8842E-08	2.1351E-06	2.2689E-06
-6.3236E-08	1.8184E-07	-4.8162E-07	-2.6242E-07
-2.7147E-08	1.7649E-07	-4.0869E-07	2.0705E-06
2.9216E-08	1.1440E-07	-1.4244E-07	1.3038E-06
9.0560E-08	5.9917E-08	1.0897E-07	1.8840E-06
6.6205E-08	1.8528E-08	-8.6644E-08	1.3647E-06
-6.4857E-08	-4.0722E-08	3.6340E-07	1.7248E-06
-1.1528E-07	7.8511E-09	-4.5976E-07	1.0148E-06
-9.7395E-08	7.9071E-08	-2.2522E-08	2.3795E-06
-9.2897E-09	1.4999E-07	3.7555E-08	1.2139E-06
3.1839E-08	2.0148E-07	-2.4798E-07	2.6160E-06
1.3816E-07	2.0592E-07	9.0869E-07	1.8679E-06
2.0820E-07	2.1490E-08	6.4428E-07	1.9018E-06
1.8181E-07	-6.0536E-08	9.4029E-07	8.7089E-07
1.1556E-07	-1.5741E-07	-4.1855E-07	1.3447E-06
3.5513E-08	-1.9988E-07	4.8086E-07	1.8099E-06
-1.6131E-07	-1.4218E-07	-7.9418E-09	1.4318E-06
-1.5537E-07	-1.0095E-08	4.3914E-07	2.1588E-06
-1.7542E-07	1.8171E-07	7.5935E-07	1.2426E-06
-8.4098E-08	1.9953E-07	-1.0627E-07	1.6986E-06
2.0337E-08	2.3824E-07	1.0582E-06	2.0338E-06
1.9906E-07	1.6840E-07	7.3786E-07	8.6112E-07
2.0952E-07	2.8989E-08	2.7693E-07	1.3436E-06
1.9371E-07	-1.0575E-07	4.4199E-07	1.2574E-06
1.2405E-07	-1.6368E-07	5.1709E-07	1.0217E-06
3.0404E-08	-1.5333E-07	-4.8603E-07	7.3212E-07
-8.9842E-08	-1.7476E-07	-3.4130E-07	2.0954E-06
-1.0727E-07	-1.5919E-07	-2.8521E-08	1.3765E-06
-1.1461E-07	-9.7054E-08	-5.7249E-07	2.7544E-06
-1.0432E-07	-4.8503E-08	1.5320E-06	2.5528E-06
-1.6877E-07	1.1349E-09	8.5898E-07	1.0055E-06
-1.5542E-07	4.8849E-08	1.0241E-07	1.7384E-06
-1.5858E-07	1.5672E-08	1.0135E-06	2.2092E-06
-1.3361E-07	9.3167E-08	1.4421E-06	8.9699E-07
-3.4738E-08	9.3837E-08	-5.2240E-08	7.0280E-07
-1.1312E-08	1.6336E-07	2.3043E-07	1.9496E-06
6.8943E-09	9.4536E-08	9.5023E-07	1.0434E-06
7.6955E-08	5.1250E-08	-5.5452E-07	1.0470E-06
1.0254E-07	-4.0106E-08	2.1797E-07	2.7728E-06
5.4549E-08	-5.4124E-08	1.6415E-06	1.6996E-06
-1.5165E-08	-1.0974E-07	1.0632E-06	7.1483E-07
-1.3211E-07	-7.6053E-08	2.6654E-07	4.9976E-07
-1.3136E-07	-6.5886E-08	-2.4373E-07	1.1943E-06
-1.7526E-07	7.5263E-08	1.7424E-07	1.3584E-06
-1.2468E-07	1.2535E-07	-2.0026E-07	1.1611E-06
-4.8236E-08	1.3481E-07	-5.4112E-07	1.8883E-06
8.0701E-08	1.6163E-07	1.5399E-07	2.5577E-06
1.1881E-07	7.5073E-08	1.0458E-06	2.3870E-06
1.6641E-07	-2.5916E-08	1.5421E-06	1.3343E-06
8.5861E-08	-8.7974E-08	4.3776E-07	7.8078E-07
4.3329E-08	-1.0887E-07	5.6497E-07	1.4476E-06
-7.2530E-09	-1.6735E-08	3.6570E-07	8.1142E-07
-9.5474E-08	2.2082E-08	8.4699E-08	1.5303E-06
-6.8935E-08	9.1590E-08	6.4571E-07	1.1359E-06
-4.4441E-08	4.8288E-08	8.8163E-08	7.2035E-07
-3.9284E-08	1.0463E-07	-5.5922E-07	1.0012E-06
3.8935E-08	7.4309E-08	-6.4108E-07	1.4481E-06
2.5819E-08	-6.5164E-09	-1.2382E-06	2.2498E-06
3.8747E-08	1.0653E-08	6.4549E-07	3.4980E-06
-2.7895E-08	-1.6244E-08	1.1205E-06	1.3213E-06
-2.4643E-08	1.5508E-08	1.8963E-07	1.8009E-06
1.0060E-08	4.3589E-08	1.9060E-08	1.3446E-06
7.4279E-08	3.4513E-08	-7.2312E-08	3.0192E-06
5.1909E-08	4.9416E-08	1.5929E-06	1.6038E-06
8.2388E-08	-1.6270E-08	-4.7758E-08	1.6800E-06
1.0358E-07	-4.4591E-08	1.1334E-06	1.6933E-06
6.7419E-08	-9.6284E-08	-2.3161E-07	1.3534E-06
3.3298E-08	-1.3917E-07	6.7686E-07	2.3686E-06
-8.5472E-08	-7.6623E-08	7.8298E-07	1.5499E-06
-8.4253E-08	-5.4547E-08	9.1764E-07	1.3030E-06
-1.2274E-07	3.9761E-09	-1.2400E-07	7.1204E-07
-6.3170E-08	5.6488E-08	-5.5553E-07	1.8459E-06
1.4318E-08	8.3726E-08	-1.8314E-07	2.1586E-06
1.3327E-08	4.8552E-08	1.3407E-07	2.5670E-06
1.0289E-07	-5.4230E-09	9.7208E-07	2.2766E-06
5.7272E-08	-1.4691E-08	4.2535E-07	1.2634E-06
8.4123E-08	-8.1959E-08	-3.5232E-07	2.4121E-06
1.4071E-08	-6.9216E-08	9.7711E-07	2.5302E-06
-7.9278E-08	-2.9733E-08	6.8058E-07	1.9010E-06
-7.7044E-08	2.7952E-09	8.8212E-07	1.8810E-06
-8.7048E-08	1.9173E-08	3.9866E-07	1.5137E-06
-3.4759E-08	3.2386E-08	1.5274E-07	1.8413E-06
-1.3921E-08	6.2005E-08	1.6530E-09	2.2895E-06
2.9651E-08	9.6900E-08	5.3092E-07	2.4728E-06
1.0376E-08	4.9994E-08	4.0312E-07	2.6255E-06
2.2839E-08	1.7539E-08	1.3601E-06	2.7026E-06
2.7160E-08	-2.0811E-08	1.0125E-06	2.0373E-06
3.1102E-08	-5.6698E-09	1.6638E-06	2.4911E-06
8.1107E-09	-4.7082E-08	1.6780E-06	8.5325E-07
7.1273E-09	-3.3682E-08	2.7076E-07	1.2482E-06
-6.3368E-09	-1.4737E-08	4.8984E-07	1.6167E-06
-1.9014E-08	-3.0589E-09	-6.5280E-08	2.1139E-06
-2.7471E-08	-1.0928E-08	1.1727E-06	2.8848E-06
-2.4955E-09	-1.6747E-09	1.4633E-06	1.5818E-06
3.0224E-08	2.2250E-08	1.1241E-06	1.7456E-06
3.6211E-08	4.6652E-08	7.9144E-07	8.2084E-07
1.3431E-08	9.2838E-08	-2.6287E-07	2.4377E-06
6.9152E-09	5.6849E-08	1.9332E-06	2.1822E-06
5.8811E-08	3.7891E-08	5.7491E-07	9.8684E-07
8.2204E-08	3.2234E-08	6.4386E-07	1.6774E-06
6.8285E-08	-1.5961E-08	-2.8322E-07	1.9397E-06
5.5503E-08	-1.9256E-09	1.4876E-06	3.3233E-06
5.2603E-08	-1.0886E-08	1.8912E-06	1.1418E-06
9.3355E-10	3.9977E-10	1.2215E-06	1.2145E-06
4.7189E-08	-4.8838E-08	1.6624E-07	3.0048E-07
2.6577E-08	-2.2617E-08	-5.9506E-07	2.5486E-06
4.5110E-08	3.4086E-09	9.7570E-07	2.1787E-06
4.1942E-08	3.7932E-08	5.2354E-07	2.5918E-06
4.6711E-08	-2.2691E-08	1.8738E-06	1.6964E-06
5.9111E-08	-2.8398E-08	-2.0615E-07	1.4468E-06
3.0029E-08	-4.2330E-08	1.1761E-06	3.2745E-06
3.9144E-08	-6.2871E-09	1.8237E-06	1.6041E-06
6.8945E-09	-2.8859E-08	1.2239E-06	1.7768E-06
-1.1954E-08	3.8536E-09	1.4416E-06	1.3800E-06
9.9436E-09	-5.2706E-08	9.8525E-07	1.2383E-06
1.2668E-08	-7.1744E-10	4.0779E-07	1.3640E-06
1.4364E-08	-6.3416E-08	6.5447E-07	2.6711E-06
-6.9287E-09	-6.4112E-08	2.2296E-06	1.9883E-06
-1.3213E-09	-1.6351E-08	1.6163E-06	9.4743E-07
-1.7606E-08	-1.7110E-08	1.3935E-06	7.8815E-07
-3.6637E-09	-4.6184E-08	5.8209E-07	6.9100E-07
-1.4203E-08	3.9941E-08	8.0306E-07	1.2904E-06
6.9064E-09	4.8671E-09	6.9033E-07	6.8715E-07
-2.3542E-08	-5.9139E-09	1.1115E-07	1.0741E-06
2.5151E-08	-9.6355E-09	1.5728E-07	1.4049E-06
2.8986E-08	1.6325E-08	4.1239E-07	1.5173E-06
-8.3757E-09	-1.9107E-09	-5.1981E-08	1.2236E-06
-2.0440E-08	1.2325E-08	-1.3626E-07	2.3996E-06
9.5828E-09	-2.7965E-08	8.4477E-07	2.0499E-06
2.8977E-08	-9.7615E-09	3.0836E-07	2.2497E-06
-1.3957E-08	1.4705E-08	1.5715E-06	2.5336E-06
2.2625E-08	2.3620E-08	1.6068E-06	1.3446E-06
