jMRUI Data Textfile

Filename: Export_to_jmrui.txt

PointsInDataset: 2048
DatasetsInFile: 1
SamplingInterval: 0.250000
ZeroOrderPhase: 0E0
BeginTime: 0E0
TransmitterFrequency: 1.2326E8
MagneticField: 2.8936E0
TypeOfNucleus:  
NameOfPatient:  
DateOfExperiment:  
Spectrometer:  
AdditionalInfo: 
SignalNames:  


Signal and FFT
sig(real)	sig(imag)	fft(real)	fft(imag)
Signal 1 out of 1 in file
3.0684E-06	6.3394E-07	-2.2758E-06	-6.7996E-07
3.8027E-06	-4.8084E-07	-1.6759E-06	1.2173E-06
2.4996E-06	-1.8101E-06	-5.9486E-07	1.0713E-06
1.4935E-06	-2.3748E-06	-8.8685E-08	7.9160E-07
-9.3450E-08	-2.3544E-06	-6.3999E-07	2.5059E-08
-1.0050E-06	-1.7327E-06	-7.7563E-07	1.4472E-06
-1.5331E-06	-8.0071E-07	8.3508E-07	4.0733E-07
-1.2277E-06	1.0496E-07	-9.2094E-07	-5.0336E-07
-7.2006E-07	5.2962E-07	-1.1621E-06	1.0125E-06
1.4345E-07	6.3948E-07	-3.4121E-07	1.0952E-06
5.7556E-07	3.9908E-07	-2.7112E-07	7.8557E-07
8.9136E-07	-8.9442E-08	-2.4922E-07	6.7611E-07
6.6492E-07	-5.7813E-07	-8.9524E-07	2.6080E-07
3.2277E-07	-8.3273E-07	-1.6115E-06	1.8028E-06
-8.9946E-08	-8.3699E-07	2.0615E-07	2.4111E-06
-3.2443E-07	-6.4735E-07	3.1667E-07	1.3980E-06
-4.4294E-07	-4.9210E-07	3.9966E-07	1.9486E-06
-4.0915E-07	-2.3456E-07	1.6153E-06	1.3596E-06
-3.7334E-07	-1.7546E-07	9.9064E-07	-2.3445E-07
-3.0201E-07	-7.1291E-08	-2.3210E-07	4.5638E-07
-3.2948E-07	-3.6355E-08	4.6750E-07	5.5557E-07
-3.8965E-07	5.4810E-08	-5.2731E-07	2.1960E-07
-4.2607E-07	9.1621E-08	-3.6072E-07	1.5299E-06
-3.0491E-07	2.0322E-07	6.4901E-07	1.1677E-06
-1.9134E-07	2.5567E-07	2.8704E-07	3.9632E-07
-1.3012E-08	2.5013E-07	-5.2911E-07	1.0045E-06
7.4117E-08	9.4051E-08	5.9256E-07	1.8503E-06
1.2792E-07	1.0013E-08	1.2642E-06	3.1231E-07
7.7332E-09	-1.1143E-07	-4.0702E-07	3.9274E-09
-1.3486E-07	-1.3494E-07	-5.9627E-08	1.5171E-06
-2.7094E-07	-3.6066E-08	8.4153E-07	2.4961E-07
-3.3646E-07	1.4595E-07	-9.8834E-07	4.6616E-07
-3.6364E-07	3.4496E-07	2.9481E-07	1.7900E-06
-2.1973E-07	4.0879E-07	3.1575E-07	3.1857E-07
-2.7010E-08	4.0736E-07	-2.9129E-07	1.1804E-06
1.5405E-07	3.6875E-07	2.2182E-07	6.0608E-07
2.3934E-07	2.2482E-07	-9.2151E-07	1.1300E-06
2.7821E-07	1.7379E-07	2.0461E-08	1.9421E-06
2.0226E-07	6.1136E-08	1.9734E-07	1.9043E-06
1.5956E-07	5.8034E-08	1.7042E-06	1.7123E-06
1.5367E-07	-8.9557E-09	6.2142E-07	-4.0703E-07
2.4039E-07	-1.0162E-08	-2.8083E-07	1.3367E-06
2.0594E-07	-3.6480E-08	5.8889E-07	2.4454E-07
2.6428E-07	-1.3141E-07	-1.1189E-06	1.3065E-06
1.4343E-07	-2.4335E-07	7.5383E-07	1.5931E-06
1.0009E-07	-2.5962E-07	-5.3923E-07	1.1299E-06
-7.0833E-08	-2.6952E-07	8.9905E-07	2.2104E-06
-1.1418E-07	-1.8714E-07	7.1063E-07	6.7429E-07
-1.5237E-07	-2.9309E-08	4.8255E-07	9.6423E-07
-9.5846E-08	1.1591E-07	-4.6429E-07	8.3103E-07
7.5358E-09	1.0487E-07	5.5817E-07	2.1636E-06
1.2650E-07	7.2841E-09	4.4911E-07	5.7217E-07
1.2029E-07	-5.8390E-08	2.6870E-07	1.9808E-06
8.8503E-08	-1.7877E-07	9.3327E-07	3.4761E-07
-3.0319E-08	-2.5104E-07	-7.6245E-07	1.3484E-06
-1.5835E-07	-1.8794E-07	4.9212E-07	1.7418E-06
-2.6747E-07	-7.0668E-08	1.7968E-07	1.6403E-06
-2.2460E-07	5.3803E-08	6.2067E-07	1.6287E-06
-1.6256E-07	1.2149E-07	6.1354E-07	1.9781E-06
-7.7672E-09	1.4703E-07	1.5960E-06	9.9678E-07
1.0619E-07	6.0739E-08	-2.8428E-07	7.7578E-07
1.6259E-07	-1.2178E-08	9.5649E-07	2.3056E-06
1.0172E-07	-1.6019E-07	1.0517E-06	3.3891E-07
-4.1647E-08	-1.6169E-07	-3.6776E-07	1.7166E-06
-1.8671E-07	-1.6964E-07	1.5268E-06	1.8114E-06
-2.0663E-07	-4.2699E-08	5.1732E-07	7.9201E-07
-1.9041E-07	8.1891E-08	1.1205E-06	1.7409E-06
-1.2203E-07	1.9937E-07	9.4692E-07	3.7699E-07
-8.4391E-08	1.5282E-07	5.5272E-07	1.1994E-06
3.5593E-08	8.4036E-08	2.9879E-07	1.9042E-07
4.9638E-08	2.0938E-08	-5.9859E-07	2.2532E-06
4.1654E-08	-1.4913E-08	1.8869E-06	1.7038E-06
-6.9331E-08	-1.3173E-08	6.1031E-07	4.3648E-07
-1.1146E-07	1.7910E-08	3.7766E-07	8.5835E-07
-9.4396E-08	9.2450E-08	-2.5465E-07	1.2266E-06
-8.9243E-08	1.7454E-07	3.5181E-07	1.9109E-06
-8.0486E-09	1.4576E-07	6.9961E-07	1.8277E-06
6.2845E-08	8.9070E-08	1.0676E-06	1.3962E-06
8.6803E-08	5.1229E-08	6.5414E-07	1.3754E-06
8.8368E-08	1.7918E-08	8.8375E-07	1.1057E-06
-2.0751E-08	-6.4521E-09	2.4571E-08	1.5821E-06
-3.5016E-08	8.8133E-09	1.3181E-06	2.1331E-06
-7.9722E-08	8.8956E-08	1.2601E-06	9.7356E-07
-3.2451E-08	1.6004E-07	6.0754E-07	1.1147E-06
4.4560E-08	1.5878E-07	7.3511E-07	1.8835E-06
1.2833E-07	1.3832E-07	1.7515E-06	1.2751E-06
2.0258E-07	4.8015E-08	8.7894E-07	8.2182E-07
1.6020E-07	-3.7826E-08	1.2502E-06	9.6276E-07
9.1098E-08	-2.0691E-07	5.2536E-07	6.1172E-07
-1.0086E-08	-2.1572E-07	6.5579E-07	1.1099E-06
-1.0158E-07	-1.6929E-07	3.8906E-07	1.1197E-06
-1.3623E-07	-3.3153E-08	8.0347E-07	1.3444E-06
-1.3964E-07	1.1330E-07	4.5168E-07	1.3739E-06
-5.3934E-08	1.7930E-07	1.3252E-06	1.5674E-06
6.4525E-08	1.4947E-07	8.5154E-07	9.4423E-07
1.5195E-07	1.3902E-07	1.5098E-06	1.2070E-06
2.1111E-07	2.9035E-08	7.3172E-07	-1.8689E-07
1.7132E-07	-1.1436E-07	-3.7667E-07	9.6695E-07
9.4761E-08	-1.7088E-07	1.6559E-07	1.8557E-06
1.2984E-09	-1.7277E-07	1.2891E-06	1.6489E-06
-4.3378E-08	-1.7366E-07	7.3649E-07	7.0614E-07
-7.5787E-08	-1.0568E-07	4.8921E-07	1.2053E-06
-8.0853E-08	-4.3043E-08	2.6133E-07	1.3374E-06
-4.2809E-08	-3.5417E-08	9.6115E-07	1.7355E-06
-6.2993E-08	-8.1645E-09	5.9124E-07	1.1777E-06
-6.6681E-08	-5.6573E-09	1.2738E-06	1.8596E-06
-7.1812E-08	3.9626E-09	1.0934E-06	4.3152E-07
-8.9327E-08	-2.0494E-08	4.0211E-07	1.2895E-06
-6.1219E-08	7.1061E-08	6.3479E-07	1.0699E-06
-4.3532E-08	7.6999E-08	7.2637E-07	1.6957E-06
-3.8061E-08	7.3065E-08	1.0496E-06	8.4178E-07
3.2075E-08	4.2280E-08	4.3772E-07	1.3592E-06
8.0603E-08	-3.4670E-08	8.6680E-07	1.0337E-06
5.9490E-08	-6.2406E-08	3.2664E-07	1.4809E-06
-1.9347E-08	-6.6824E-08	1.0379E-06	1.2608E-06
-9.4950E-08	-5.0552E-08	1.6670E-07	1.3787E-06
-1.1746E-07	-2.7601E-08	1.2858E-06	1.9960E-06
-1.3876E-07	3.8373E-08	9.6937E-07	7.0979E-07
-7.3841E-08	8.6654E-08	5.6699E-07	1.8610E-06
-2.6491E-08	1.1552E-07	1.6192E-06	8.8955E-07
4.8949E-08	1.0314E-07	-1.2162E-07	1.1351E-06
7.5411E-08	5.9759E-08	1.6490E-06	2.2492E-06
5.0670E-08	7.4518E-09	1.3301E-06	1.9864E-07
3.3035E-08	8.2809E-09	3.5233E-07	1.3170E-06
3.5002E-08	-8.5265E-08	1.2881E-06	1.2860E-06
-2.5790E-08	-7.7555E-08	1.1535E-06	4.7731E-07
-6.4674E-08	-1.2217E-08	-6.7486E-09	5.1386E-07
-3.8800E-08	1.8143E-08	2.9569E-07	1.5344E-06
-3.7288E-08	5.7096E-08	2.5770E-07	1.2587E-06
-8.8664E-09	8.6192E-08	6.6261E-07	2.0869E-06
2.9868E-08	-3.8517E-09	1.1458E-06	1.3147E-06
3.4636E-08	2.0964E-08	9.3892E-07	1.4114E-06
-4.5918E-08	1.9541E-08	9.3453E-07	1.0754E-06
-1.0771E-08	1.0308E-08	8.0897E-07	1.1486E-06
1.7079E-08	3.2015E-08	1.9068E-07	1.3317E-06
6.1790E-08	4.9408E-08	1.5971E-06	2.3802E-06
6.0956E-08	1.0814E-08	1.6995E-06	-1.9652E-07
9.5571E-08	8.4110E-10	-4.3435E-07	1.0856E-06
7.8781E-08	-1.3746E-08	1.1432E-06	1.8355E-06
7.6649E-08	-7.7683E-08	1.2237E-06	6.6942E-07
2.6143E-08	-9.9179E-08	-6.1915E-08	6.8100E-07
7.5819E-09	-1.1793E-07	6.4834E-07	2.1569E-06
-4.4997E-08	-4.0710E-08	1.1053E-06	6.1553E-07
-5.3821E-08	-2.8016E-08	1.2658E-07	1.7134E-06
-8.6182E-08	-2.2498E-08	1.3539E-06	1.1487E-06
-2.9262E-08	9.5159E-09	4.0286E-07	1.2109E-06
-1.6117E-08	4.7216E-08	1.0987E-06	9.2417E-07
2.6915E-08	5.9053E-08	-6.7707E-08	1.0388E-06
6.9086E-08	-1.2154E-08	7.1479E-07	1.4707E-06
7.4821E-08	-4.5134E-08	6.7868E-08	1.2928E-06
4.0560E-08	-5.3055E-08	6.6913E-07	1.8211E-06
-1.5108E-08	-7.9993E-08	3.1922E-07	1.5857E-06
-1.9828E-08	-3.8578E-08	1.0874E-06	2.2635E-06
-2.6194E-08	-1.4514E-08	1.3720E-06	1.1117E-06
-8.5787E-08	2.0885E-08	5.8239E-07	1.2137E-06
-4.0586E-08	2.9153E-08	7.9202E-07	1.6210E-06
6.6645E-09	3.9780E-08	1.0534E-06	1.3214E-06
-3.6390E-10	4.8215E-08	6.7137E-07	1.2656E-06
-3.1562E-10	5.0266E-08	9.5528E-07	1.4004E-06
3.1848E-08	9.3384E-09	4.1714E-07	9.5199E-07
1.5338E-08	-3.6731E-08	2.1436E-07	2.1726E-06
5.6529E-08	-4.3064E-08	1.4695E-06	1.8950E-06
-4.3678E-09	-3.0977E-08	9.7714E-07	1.4514E-06
5.8995E-09	-6.6867E-08	1.3936E-06	1.6441E-06
-2.5347E-08	-3.1672E-08	1.3350E-06	1.4119E-06
-4.1646E-08	-3.7496E-08	2.1605E-06	9.0981E-07
-3.8573E-08	-2.6620E-08	7.4997E-07	-3.9411E-07
-3.6699E-08	6.6419E-09	1.2444E-07	7.8492E-07
-2.2961E-08	3.4822E-08	-2.6246E-07	9.1410E-07
-6.1962E-10	7.1624E-08	6.1010E-07	2.2572E-06
-3.0610E-10	4.2746E-08	9.1565E-07	6.1405E-07
2.9038E-08	5.4330E-08	6.5002E-08	1.8779E-06
4.2318E-08	5.1081E-08	1.2674E-06	1.2273E-06
9.8159E-08	1.4059E-08	4.5546E-07	1.2606E-06
7.8132E-08	-3.1562E-08	8.6898E-07	1.0456E-06
5.7439E-08	-4.3404E-08	4.1958E-07	1.1375E-06
2.6841E-08	-9.9248E-09	1.0047E-07	7.8435E-07
6.3430E-08	-7.9305E-10	-1.4514E-07	2.5053E-06
-5.4658E-10	1.2593E-08	1.7903E-06	1.1327E-06
3.5198E-08	1.1370E-08	-6.3376E-07	1.0021E-06
2.4326E-08	-1.6932E-08	1.0056E-06	2.3924E-06
3.5955E-08	5.1644E-09	6.2350E-07	8.9571E-07
7.8861E-09	-3.5515E-08	4.6481E-07	1.8100E-06
5.1477E-08	-3.6626E-08	7.1122E-07	9.8686E-07
-2.0568E-08	-1.0375E-08	-5.3330E-07	1.5145E-06
1.0132E-08	-3.7000E-08	6.7828E-07	2.8986E-06
-1.1026E-08	-5.9591E-08	1.4472E-06	9.3961E-07
-1.7826E-08	-1.8550E-08	-6.7622E-07	1.6113E-06
-2.6928E-08	-5.3974E-08	9.6122E-07	2.8473E-06
-1.2357E-08	-3.1543E-08	1.1222E-06	1.7052E-06
-3.1019E-08	-9.2058E-09	1.0767E-06	1.8048E-06
-1.3800E-08	-3.7574E-08	9.7404E-07	1.4002E-06
9.8740E-09	-1.1167E-08	5.3913E-07	1.3751E-06
1.9930E-08	6.7420E-09	3.0536E-07	2.1866E-06
-4.3702E-08	-3.4375E-08	1.4361E-06	2.1211E-06
-4.2727E-08	-8.6058E-09	9.7283E-07	1.5612E-06
1.0637E-08	-3.6352E-08	1.4860E-06	1.8301E-06
-6.6874E-10	3.1910E-08	1.3632E-06	8.0126E-07
-1.6741E-08	-4.6790E-08	5.0100E-07	7.1996E-07
-2.0069E-08	3.7121E-08	-8.0279E-08	1.3120E-06
-2.1156E-09	4.2400E-08	1.7153E-07	1.8005E-06
-1.9825E-08	1.3452E-08	4.3106E-08	2.1997E-06
-4.7418E-08	-1.4996E-08	9.2272E-07	2.6736E-06
2.9059E-08	-5.1585E-08	1.3652E-06	2.0898E-06
-5.5850E-09	-3.3437E-08	1.3659E-06	1.5437E-06
7.5178E-09	1.2708E-08	6.9445E-07	1.5979E-06
