jMRUI Data Textfile

Filename: Export_to_jmrui.txt

PointsInDataset: 2048
DatasetsInFile: 1
SamplingInterval: 0.250000
ZeroOrderPhase: 0E0
BeginTime: 0E0
TransmitterFrequency: 1.2326E8
MagneticField: 2.8936E0
TypeOfNucleus:  
NameOfPatient:  
DateOfExperiment:  
Spectrometer:  
AdditionalInfo: 
SignalNames:  


Signal and FFT
sig(real)	sig(imag)	fft(real)	fft(imag)
Signal 1 out of 1 in file
2.7079E-06	5.4005E-07	-7.0359E-07	2.8954E-08
2.7003E-06	-2.9181E-07	-4.9861E-07	9.6188E-07
1.8395E-06	-1.2226E-06	4.4525E-07	7.4501E-07
1.1584E-06	-1.5995E-06	-2.4710E-07	8.5362E-07
1.9041E-08	-1.6165E-06	1.3058E-06	1.1249E-06
-6.4954E-07	-1.1998E-06	3.7075E-08	-3.9602E-07
-1.0663E-06	-5.8026E-07	4.2874E-07	1.5833E-06
-8.3929E-07	-2.5880E-08	1.0452E-06	-4.3977E-07
-4.4587E-07	3.6139E-07	-4.3785E-07	6.8929E-07
1.6242E-07	4.2610E-07	6.6233E-07	4.3687E-07
4.9577E-07	1.4821E-07	-4.4022E-07	5.3407E-07
6.6146E-07	-1.7822E-07	6.1321E-09	1.4783E-06
4.6999E-07	-4.6791E-07	1.0341E-06	1.5690E-06
2.2260E-07	-6.2014E-07	9.7358E-07	2.1553E-07
-1.0011E-07	-5.6438E-07	1.2494E-07	1.2474E-06
-2.2289E-07	-4.1447E-07	1.4324E-06	9.6279E-07
-3.2922E-07	-2.3526E-07	8.2691E-07	5.0763E-07
-2.6806E-07	-1.3838E-07	1.0171E-06	3.9092E-07
-2.3997E-07	-6.6315E-08	5.9239E-07	5.2905E-07
-1.5073E-07	-1.1569E-07	1.1103E-06	6.6183E-08
-2.3368E-07	-1.5257E-07	-3.0710E-07	-1.7677E-09
-2.9419E-07	-7.8236E-08	4.0614E-07	1.1337E-06
-3.5325E-07	1.2788E-08	3.0039E-07	1.9556E-07
-3.3499E-07	1.3251E-07	-2.4433E-07	1.2710E-06
-2.1613E-07	2.0429E-07	8.9150E-07	1.2804E-06
-7.6474E-08	2.1174E-07	5.5520E-07	6.6334E-07
4.0480E-08	1.0184E-07	3.7882E-07	1.0288E-06
9.4633E-08	5.2064E-08	5.1711E-07	1.1771E-06
3.9535E-08	-7.8381E-08	8.0856E-07	1.2469E-06
-7.1684E-08	-9.6441E-08	9.8615E-07	1.0540E-06
-1.9637E-07	-1.0155E-08	9.2173E-07	5.6833E-07
-2.8844E-07	1.3208E-07	-6.8833E-09	1.2014E-06
-2.6490E-07	2.6086E-07	1.8153E-06	1.9236E-06
-1.0243E-07	3.2262E-07	1.4058E-06	-4.0341E-07
3.5073E-08	3.2231E-07	7.0908E-08	9.3747E-07
1.6728E-07	2.5470E-07	1.0831E-06	8.3741E-07
2.0980E-07	1.4943E-07	5.5085E-07	6.9735E-07
2.1660E-07	1.0676E-07	4.8661E-07	9.6336E-07
1.3886E-07	-4.9602E-09	1.0681E-06	1.4435E-06
1.3029E-07	-6.0939E-09	1.1300E-06	8.0380E-08
1.2079E-07	3.9038E-08	-1.4094E-07	1.0665E-06
1.3569E-07	2.4929E-08	8.7981E-07	1.2069E-06
1.6791E-07	3.9995E-09	2.3229E-07	1.4777E-06
1.6693E-07	-6.0689E-08	1.4523E-06	1.9326E-06
1.6535E-07	-1.6099E-07	1.7300E-06	1.0965E-06
1.0107E-07	-1.9015E-07	1.5037E-06	3.0560E-07
-7.0490E-09	-2.1569E-07	3.5823E-07	8.0179E-07
-8.5386E-08	-1.7217E-07	1.2915E-06	1.3481E-06
-1.0818E-07	-8.3441E-08	9.2130E-07	8.9680E-07
-9.4189E-08	4.8442E-08	1.4513E-06	1.5925E-06
1.6274E-08	4.2460E-08	2.0504E-06	6.3996E-07
3.6815E-08	5.9572E-08	1.2352E-06	1.0431E-07
1.1238E-07	-6.5267E-08	1.0189E-06	8.1640E-07
8.7301E-08	-1.4822E-07	1.5396E-06	2.9451E-07
-1.8665E-09	-1.5635E-07	7.4229E-07	4.2633E-07
-8.2777E-08	-1.4309E-07	1.4702E-06	3.4545E-07
-2.0707E-07	-6.8963E-08	2.8452E-07	-1.6452E-07
-1.6721E-07	-1.0294E-08	3.9877E-07	9.4590E-07
-9.6829E-08	9.5258E-08	4.5648E-07	8.9040E-07
8.3989E-09	7.6065E-08	1.2101E-06	1.4001E-06
6.8517E-08	7.5295E-09	1.2331E-06	1.6433E-07
1.4885E-07	-8.6647E-08	5.4187E-07	8.0925E-07
3.6273E-08	-1.6171E-07	1.2232E-06	3.4226E-07
-8.8257E-09	-1.1116E-07	-1.9924E-07	1.3070E-07
-1.4664E-07	-1.3622E-07	1.4187E-07	1.7200E-06
-2.2849E-07	-3.6452E-08	8.6365E-07	1.0372E-06
-1.9633E-07	6.9896E-08	4.9519E-07	1.7353E-06
-1.2097E-07	1.2100E-07	1.8405E-06	9.3994E-07
-8.6672E-08	1.2476E-07	-4.1519E-08	5.6640E-07
4.3235E-08	1.1555E-07	1.1260E-06	2.0979E-06
3.6518E-08	6.6174E-08	1.0379E-06	7.2462E-07
4.5276E-08	7.6137E-10	9.3943E-07	1.8433E-06
-4.1201E-08	-1.7082E-08	1.3884E-06	1.1206E-06
-6.2502E-08	1.0220E-08	1.5402E-06	1.8313E-06
-8.2933E-08	2.6793E-08	2.1383E-06	3.8128E-07
-1.2708E-08	1.0308E-07	8.5840E-07	9.8408E-07
-1.9876E-08	8.8908E-08	2.0904E-06	8.3047E-07
1.3355E-08	5.6725E-08	1.0640E-06	1.9763E-07
3.5975E-08	3.6302E-08	1.2538E-06	7.4066E-07
9.0703E-09	1.1315E-08	9.3170E-07	3.8740E-07
-4.5552E-09	-3.1146E-08	7.1384E-07	1.0380E-06
-4.5334E-08	4.6079E-08	1.4372E-06	1.3603E-06
-5.1546E-08	1.1844E-07	1.7571E-06	4.1416E-07
-4.4088E-08	1.3808E-07	8.7818E-07	6.6092E-07
6.3455E-08	1.5842E-07	1.7333E-06	8.3310E-07
1.4828E-07	9.1969E-08	1.3611E-06	2.0832E-07
1.5337E-07	5.0505E-08	1.6583E-06	-5.2700E-08
1.5455E-07	-7.2860E-08	6.6920E-09	-9.1812E-07
8.0847E-08	-1.0762E-07	-6.0205E-07	1.3264E-06
2.6487E-08	-1.0830E-07	7.2037E-07	1.5171E-06
-8.3464E-08	-9.1593E-08	1.0274E-06	1.6462E-06
-1.0853E-07	-6.4202E-08	1.7702E-06	9.6710E-07
-1.2201E-07	9.6831E-08	1.1971E-06	6.4965E-07
-3.4989E-08	1.6069E-07	1.5110E-06	5.9049E-07
8.9062E-09	1.4582E-07	1.0266E-06	8.4766E-08
1.4857E-07	6.0529E-08	6.4743E-07	2.6965E-07
1.6280E-07	2.0527E-08	1.7175E-07	5.6876E-07
1.3003E-07	-6.4962E-08	4.3064E-07	1.3499E-06
1.0014E-07	-1.4236E-07	1.0402E-06	1.3122E-06
2.4282E-08	-1.4600E-07	1.2473E-06	8.3224E-07
-3.5441E-08	-1.0893E-07	5.9999E-07	9.0170E-07
-8.7806E-08	-8.7414E-08	1.5748E-06	1.5193E-06
-9.1734E-08	-4.6418E-08	1.5087E-06	-1.3747E-07
-1.0841E-07	-1.2052E-08	3.4741E-07	7.6067E-07
-6.1430E-08	2.7765E-09	1.2756E-06	5.4982E-07
-9.2507E-08	5.3115E-09	2.1664E-07	4.0352E-07
-8.1731E-08	-2.8907E-08	6.1307E-07	1.0126E-06
-7.2285E-08	1.9631E-09	2.3750E-07	9.6640E-07
-5.3354E-08	3.0213E-08	8.6145E-07	1.7656E-06
-6.2444E-09	6.5345E-08	1.5008E-06	9.3588E-07
1.7901E-08	5.2460E-09	8.2411E-07	4.3850E-07
5.9300E-08	7.8872E-08	4.3751E-07	1.0818E-06
8.6234E-08	-9.3856E-09	1.0689E-06	9.9052E-07
2.6005E-08	-1.4648E-08	3.3403E-07	6.6194E-07
-1.0856E-08	-7.6699E-08	3.3607E-07	1.5711E-06
-4.2332E-08	-7.7369E-08	9.0523E-07	1.6094E-06
-1.1508E-07	1.0066E-08	1.0957E-06	1.3977E-06
-9.6296E-08	1.3127E-08	1.1396E-06	1.2879E-06
-2.5149E-08	5.9480E-08	8.6800E-07	9.1459E-07
-8.7971E-09	8.9640E-08	4.5126E-07	2.0660E-06
1.1972E-08	7.9091E-08	2.3168E-06	1.7584E-06
3.9413E-08	7.2661E-08	1.1549E-06	6.7604E-07
4.9541E-08	9.1024E-10	1.8902E-06	1.5386E-06
4.7687E-08	-4.0513E-08	1.3648E-06	-3.2267E-08
3.0535E-08	-2.2193E-08	6.7031E-07	1.3378E-06
-3.8194E-08	-1.4974E-08	1.4540E-06	1.0634E-06
9.8153E-09	-1.1556E-08	1.5924E-06	1.1426E-06
-2.3447E-08	2.8856E-08	1.3990E-06	2.9518E-08
-1.5747E-08	7.4806E-09	4.2041E-07	1.2886E-06
3.2281E-08	3.9212E-08	2.1827E-06	1.0351E-06
1.9231E-08	-1.8077E-09	1.0693E-06	-2.3520E-07
3.4715E-08	-1.3771E-08	6.4758E-07	6.0995E-07
1.1337E-08	-8.8893E-09	7.3631E-07	3.1989E-07
1.6906E-08	-5.3300E-09	-1.0016E-07	7.1932E-07
-1.9738E-08	3.4868E-08	5.1724E-07	1.7757E-06
5.9298E-09	2.6677E-08	1.1939E-06	9.6797E-07
6.5774E-08	5.2745E-08	3.4287E-07	1.0687E-06
7.2295E-08	-2.6609E-08	9.8710E-07	1.5405E-06
7.2254E-08	-4.8644E-08	7.5208E-07	1.0184E-06
1.1258E-07	-7.0109E-08	9.3574E-07	1.6686E-06
2.4127E-08	-3.9073E-08	1.0463E-06	7.0554E-07
-4.0539E-08	-7.0992E-08	-5.6847E-08	1.9430E-06
-3.5864E-08	-2.0160E-08	2.1828E-06	2.2139E-06
-6.6373E-08	-6.1108E-08	1.2689E-06	2.9892E-07
-3.1752E-08	-1.4267E-08	5.5323E-07	1.7081E-06
1.6137E-09	2.3242E-08	1.5721E-06	1.6026E-06
2.8615E-08	4.1179E-08	1.3246E-06	1.1375E-06
2.0201E-08	-4.1269E-08	1.2435E-06	1.5902E-06
1.3486E-08	-8.9767E-09	2.0964E-06	1.0127E-06
1.6184E-08	-2.1211E-08	6.0394E-07	4.0260E-07
3.6333E-08	-4.1378E-08	9.8571E-07	2.1569E-06
-4.0851E-08	-7.5753E-08	2.0429E-06	1.2526E-06
-3.1562E-08	-2.7112E-08	1.7106E-06	7.8769E-07
-6.3805E-08	1.2556E-08	9.5862E-07	5.6521E-07
-5.0719E-08	3.6877E-09	1.1911E-06	1.6167E-06
-2.8572E-08	9.2035E-09	1.5083E-06	8.0047E-07
6.6725E-09	4.5388E-08	1.2686E-06	1.5893E-06
-1.9282E-08	7.3277E-08	2.0990E-06	6.0971E-07
-2.8596E-09	1.9797E-08	7.8658E-07	8.2942E-07
2.0035E-08	3.3745E-08	1.8764E-06	1.3828E-06
1.7886E-08	-1.5683E-08	1.7297E-06	2.8844E-07
1.1218E-08	-1.3957E-08	1.0542E-06	4.1249E-07
-4.1123E-09	-3.6333E-09	7.3877E-07	7.9230E-07
-3.5048E-09	-1.7783E-08	1.1347E-06	1.6458E-06
-1.1179E-08	-5.2038E-08	2.4012E-06	8.8617E-07
-3.9859E-09	-1.0457E-09	1.3833E-06	-1.0525E-07
-2.4834E-08	-8.6082E-09	1.4260E-06	1.1494E-07
-5.0163E-08	2.2947E-08	-2.1091E-07	-4.6602E-07
-3.7663E-08	4.2695E-08	2.4703E-07	2.3517E-06
-7.5666E-09	2.0881E-08	2.1422E-06	3.4338E-07
-1.1549E-08	3.5550E-08	1.0411E-07	3.3433E-07
3.6722E-08	5.3546E-08	6.4433E-07	8.4011E-07
6.0822E-08	2.2597E-08	3.2313E-08	1.3150E-06
4.7613E-08	4.9124E-08	1.2342E-06	1.5704E-06
3.2951E-08	4.4955E-10	6.6315E-07	8.4306E-07
3.8741E-08	-2.4494E-08	5.7084E-07	1.6623E-06
2.2132E-08	-7.8997E-09	1.2950E-06	1.7789E-06
1.0626E-08	-1.1691E-08	1.5261E-06	1.1987E-06
-7.6872E-10	-1.9833E-08	1.5704E-06	1.1473E-06
1.8092E-09	1.5312E-08	1.3348E-06	1.1296E-07
6.5956E-09	-3.2576E-09	1.1085E-07	1.0070E-06
6.5994E-08	-3.6538E-08	9.4212E-07	1.1939E-06
1.6969E-08	-2.4130E-08	1.5921E-07	1.6687E-06
4.2341E-08	-4.0525E-08	1.7151E-06	2.2670E-06
1.5310E-08	-3.8758E-08	1.8255E-06	1.2829E-06
-1.2913E-08	1.4556E-08	2.1743E-06	6.7913E-07
-1.0879E-09	-6.0642E-08	6.8931E-07	1.7781E-07
-2.7559E-08	-3.8642E-08	1.3050E-06	1.2278E-06
-5.2683E-08	-4.0929E-08	4.8720E-07	6.6048E-08
-2.2857E-08	-2.2882E-08	4.1648E-07	2.3112E-06
4.9999E-09	-2.3063E-09	2.2769E-06	7.7069E-07
2.2607E-08	-1.0104E-08	2.6071E-07	2.6442E-07
-2.8158E-08	-2.3559E-08	3.7324E-07	1.5017E-06
1.9263E-08	1.5655E-08	7.5398E-07	1.7600E-06
-1.8264E-09	-3.9590E-08	1.0944E-06	1.6715E-06
-3.8452E-08	2.5833E-08	1.3388E-06	2.2327E-06
1.8360E-08	-1.0895E-09	2.6548E-06	1.0937E-06
-5.7806E-09	1.0397E-08	8.9497E-07	5.4653E-07
2.8813E-08	-4.4879E-08	1.9722E-06	1.4635E-06
2.1164E-08	-3.5619E-09	1.1127E-06	6.1322E-08
-6.9853E-08	1.9910E-08	1.2925E-06	1.6027E-06
1.6221E-08	1.8914E-08	1.6710E-06	-7.2341E-08
-9.3074E-10	-2.4081E-09	3.4856E-07	7.9137E-07
1.0076E-08	1.1895E-08	8.2807E-07	9.2329E-07
-1.2165E-08	-2.2819E-08	9.3874E-07	1.5115E-06
1.5760E-08	-6.0154E-09	1.3033E-06	4.8495E-07
-4.4450E-09	1.5626E-08	2.9099E-07	1.3233E-06
