jMRUI Data Textfile

Filename: Export_to_jmrui.txt

PointsInDataset: 2048
DatasetsInFile: 1
SamplingInterval: 0.250000
ZeroOrderPhase: 0E0
BeginTime: 0E0
TransmitterFrequency: 1.2326E8
MagneticField: 2.8936E0
TypeOfNucleus:  
NameOfPatient:  
DateOfExperiment:  
Spectrometer:  
AdditionalInfo: 
SignalNames:  


Signal and FFT
sig(real)	sig(imag)	fft(real)	fft(imag)
Signal 1 out of 1 in file
1.2434E-06	-6.9584E-07	5.7410E-07	7.2562E-07
1.4206E-06	-1.3601E-06	-1.0382E-07	3.7874E-07
6.2215E-07	-1.4218E-06	1.4878E-06	1.5482E-06
8.3235E-08	-1.3833E-06	1.6982E-06	-2.0276E-06
-5.5962E-07	-8.8322E-07	-1.6746E-06	-9.9895E-07
-7.8603E-07	-3.6868E-07	-1.2245E-06	8.0401E-07
-7.6720E-07	6.9655E-08	1.4894E-07	2.1722E-06
-3.6222E-07	1.9542E-07	2.1845E-06	-8.5985E-08
-3.4300E-08	2.1058E-07	-3.4382E-07	-1.2746E-06
1.9445E-07	-9.1836E-08	-8.5900E-07	5.3889E-07
1.7164E-07	-3.5559E-07	7.1532E-07	8.6001E-07
9.7497E-08	-4.8663E-07	2.9040E-08	-9.6726E-07
-1.4303E-07	-4.6005E-07	-8.8771E-07	1.1299E-06
-2.5868E-07	-3.1853E-07	8.1802E-07	1.4599E-07
-3.8541E-07	-1.1599E-07	-6.1500E-07	6.9422E-07
-3.1610E-07	3.4848E-08	1.2064E-06	4.5737E-07
-1.8207E-07	9.8616E-08	-3.4975E-07	-2.8618E-07
-7.5006E-08	-2.8729E-08	1.9862E-07	6.7785E-07
-4.9260E-08	-5.6116E-08	3.8547E-07	3.6383E-07
-1.7187E-07	-1.2054E-07	3.0018E-07	-3.4846E-07
-3.3401E-07	-1.1318E-07	-4.8074E-07	1.0760E-06
-3.9785E-07	-1.5204E-08	2.0115E-06	-4.1647E-07
-3.5380E-07	1.7145E-07	-2.2218E-06	-1.1536E-06
-3.1652E-07	2.9793E-07	5.5898E-07	2.9476E-06
-9.5482E-08	3.2801E-07	1.7304E-06	-1.7506E-06
6.4218E-08	2.3383E-07	-2.2182E-06	-3.6723E-07
1.6720E-07	7.1381E-08	-4.0239E-07	2.0250E-06
1.2135E-07	-4.6926E-08	1.1026E-06	6.7249E-07
-2.8284E-08	-1.2845E-07	-3.3936E-07	-2.7336E-07
-1.0931E-07	-5.3942E-08	-5.7793E-07	1.5642E-06
-2.0091E-07	4.8841E-08	1.1373E-06	1.2623E-06
-1.9281E-07	2.5145E-07	6.2089E-07	3.2647E-07
-7.0353E-08	3.2928E-07	8.1331E-07	1.0215E-06
3.2637E-08	3.1673E-07	1.6234E-06	-2.2760E-07
2.3164E-07	2.4213E-07	-7.7945E-08	-8.5216E-07
2.9468E-07	1.1796E-07	-4.8612E-07	6.0316E-07
2.6679E-07	2.2218E-08	6.8077E-07	1.1111E-06
1.3850E-07	-1.2724E-07	1.2738E-06	-9.8349E-08
4.8631E-08	-8.5853E-08	3.2639E-07	-4.4619E-07
9.8410E-08	-5.8920E-08	2.1122E-08	-4.4967E-07
5.8638E-08	-6.7327E-10	-6.4736E-07	4.0992E-07
1.0173E-07	-6.6227E-09	5.8168E-07	5.7373E-07
1.2459E-07	-7.9087E-08	-5.6275E-08	-1.6497E-07
1.5517E-07	-1.2832E-07	-3.3377E-07	3.0308E-07
4.3518E-08	-2.2881E-07	-4.9219E-07	1.1710E-06
-1.5585E-08	-2.3746E-07	1.1484E-06	1.1635E-06
-6.6408E-08	-1.7466E-07	6.8844E-07	-3.3163E-08
-1.3657E-07	-9.6591E-08	3.9844E-07	-2.5927E-07
-1.4508E-07	4.4740E-09	-1.0470E-06	5.2711E-07
-6.9993E-08	3.6566E-08	1.1794E-06	1.5580E-06
1.2072E-08	3.1308E-08	9.2998E-08	-5.0116E-07
4.8543E-08	1.8469E-08	4.1080E-07	1.7477E-06
4.5934E-08	-1.0281E-08	1.3533E-06	-5.5358E-07
-6.1988E-08	-2.5210E-08	-4.9780E-07	4.3830E-07
-5.7554E-08	-2.1819E-08	7.9706E-07	7.5639E-07
-1.7177E-07	-6.5111E-08	8.7599E-07	2.5232E-07
-8.3099E-08	2.8595E-08	3.0847E-07	-8.1157E-07
-4.7658E-08	1.1434E-07	-1.0840E-06	8.2791E-07
-1.3569E-08	8.4210E-08	1.0760E-06	1.2417E-06
3.7427E-08	5.8446E-08	4.0894E-07	-2.2698E-07
8.1694E-08	-2.8572E-08	-1.9729E-07	6.1401E-07
3.6647E-08	-9.5049E-08	3.3424E-07	1.1793E-06
-6.5551E-08	-1.1842E-07	1.3612E-06	5.3108E-07
-1.2035E-07	-8.9859E-08	4.5928E-08	-5.6667E-07
-1.4538E-07	5.1912E-08	-4.6606E-07	1.3046E-06
-1.7349E-07	1.0667E-07	1.3185E-06	1.0466E-06
-1.0406E-07	1.5486E-07	5.7491E-07	-2.4004E-07
-1.4459E-08	2.1394E-07	-3.9443E-07	7.4707E-07
-2.6384E-08	1.5310E-07	8.0210E-07	1.5746E-06
2.0776E-08	1.0965E-07	1.0408E-06	5.0370E-07
5.2296E-08	3.9560E-08	9.8571E-07	1.2974E-06
-8.1151E-09	1.9170E-08	2.1567E-06	-1.6030E-07
-7.1281E-08	4.0312E-08	1.6601E-07	-4.6710E-07
-7.7766E-08	2.6590E-08	7.4928E-07	4.2584E-07
-6.6219E-08	7.4593E-08	4.1076E-07	2.9068E-07
4.1367E-08	1.0004E-07	1.2223E-06	2.2039E-07
8.3686E-08	9.6297E-08	-2.7003E-07	-4.5469E-08
8.2889E-08	6.0491E-08	1.4660E-06	1.6725E-06
8.8445E-08	-1.4063E-08	1.6941E-06	-1.3390E-06
4.1229E-08	-2.8505E-08	-7.9785E-07	-9.4512E-08
-2.6959E-08	4.9805E-08	7.6753E-07	1.3965E-06
-3.5835E-08	7.6899E-08	1.8922E-06	-1.3135E-07
4.8252E-08	1.0785E-07	1.4271E-07	-7.9218E-07
5.2757E-08	8.0153E-08	5.9139E-07	6.1423E-07
1.1151E-07	5.0593E-08	7.8673E-07	-3.7272E-07
1.5848E-07	-4.0290E-08	7.2172E-07	7.1735E-08
1.6793E-07	-5.5278E-08	3.7289E-07	-8.6132E-07
9.0823E-08	-1.1545E-07	-6.1539E-08	1.5986E-07
-3.9670E-08	-1.0264E-07	-9.9044E-08	-4.8748E-07
-9.7896E-08	-3.1783E-08	-5.3496E-07	1.1911E-06
-1.1029E-07	-1.3324E-08	1.1176E-06	4.6826E-07
-5.7709E-08	7.3862E-08	2.3519E-07	3.9478E-07
-2.1645E-09	1.3541E-07	1.2390E-06	1.1823E-07
6.3464E-08	1.0327E-07	1.0937E-07	-6.9191E-07
1.2501E-07	2.5599E-08	-2.7160E-07	1.4676E-07
1.2253E-07	-2.2707E-08	-4.7407E-08	3.4272E-07
1.1118E-07	-1.2032E-07	-3.9573E-07	5.1401E-07
2.2551E-08	-1.1269E-07	3.8625E-07	1.5785E-06
-3.3650E-08	-1.0771E-07	1.2627E-06	1.4668E-07
-4.7591E-08	-1.7353E-08	1.7374E-07	1.4440E-07
-8.4289E-08	-3.5178E-08	1.1228E-07	2.7064E-08
-1.2597E-08	-2.9662E-08	-3.7957E-07	1.3230E-06
-4.4853E-08	1.6195E-08	1.3553E-06	6.5045E-07
-1.2174E-08	1.6346E-08	-3.9196E-07	4.5978E-07
-3.9625E-08	-3.2848E-08	1.3371E-06	1.5639E-06
-2.7284E-08	-2.6699E-08	7.6458E-07	-3.8803E-07
-8.0006E-08	-1.2890E-08	-2.3767E-08	1.1834E-06
-6.0152E-08	5.7437E-08	1.5678E-06	1.1000E-06
-3.5159E-08	7.8834E-08	1.2917E-06	-3.4031E-07
-3.3865E-08	4.7139E-08	1.1665E-07	2.2941E-07
8.0425E-09	1.3852E-08	1.0177E-06	4.4381E-07
4.9724E-08	1.8300E-08	-3.8028E-08	6.4133E-08
3.0989E-08	-1.1364E-08	7.9559E-07	1.4702E-06
-3.1821E-09	-7.9408E-08	1.4330E-06	1.0150E-07
-1.3814E-08	-1.0064E-08	7.5583E-07	9.7586E-08
-4.9490E-08	1.7173E-08	4.1799E-07	-1.1723E-08
-5.6626E-08	5.4558E-08	5.1952E-07	7.8353E-07
-8.0743E-08	8.4793E-08	6.7606E-07	-1.0474E-08
-3.2616E-08	8.7616E-08	-5.7025E-08	1.2868E-06
5.9004E-09	8.9823E-08	2.0072E-06	1.0801E-06
7.0943E-08	1.0619E-07	1.0642E-06	-3.2067E-07
1.0912E-07	2.0787E-08	8.2298E-07	4.2941E-07
7.5473E-08	-3.6092E-08	1.0033E-06	3.2136E-07
-3.2725E-08	-6.4585E-08	1.3775E-06	1.3566E-07
-1.3230E-08	-5.7311E-08	5.7195E-07	-5.1957E-07
3.7306E-10	-5.9546E-08	2.9667E-07	7.2181E-07
-2.6091E-09	4.6770E-08	1.3752E-06	6.1671E-07
9.1625E-09	-8.6769E-09	1.3982E-06	-1.5675E-07
-1.1700E-08	1.0764E-08	6.6916E-07	-2.7145E-07
2.4027E-08	-7.3863E-09	1.0491E-06	3.2426E-07
6.9034E-08	-3.1292E-09	1.1230E-06	-5.1448E-07
9.4632E-09	-7.1993E-09	7.0861E-07	-3.0034E-07
2.3407E-08	6.7994E-09	3.3039E-07	-6.3128E-07
2.6994E-08	-3.1023E-08	2.3381E-07	4.7181E-07
6.9585E-08	1.3242E-08	7.5694E-07	-5.1318E-07
4.3813E-08	-4.9754E-08	-6.0754E-07	8.2221E-07
6.0360E-08	-2.6775E-08	2.1918E-06	1.3244E-06
7.1620E-08	-6.4219E-08	1.8747E-06	-1.4946E-06
3.1642E-08	-3.5379E-08	-2.4532E-07	-1.2561E-06
-5.3296E-08	-6.5003E-08	4.8880E-08	2.8203E-07
2.5284E-09	-1.0230E-07	6.7890E-07	-1.1621E-06
-7.5293E-08	-1.4860E-08	-1.8754E-06	-1.7861E-07
-6.5950E-08	8.3932E-10	2.7805E-07	1.8001E-06
-2.3260E-08	2.0732E-08	5.2850E-07	1.4543E-07
-3.6120E-08	3.6253E-08	1.9553E-07	7.9463E-07
-3.5719E-08	1.9920E-08	4.4509E-07	8.5048E-07
-2.4652E-08	2.5757E-08	1.3060E-06	9.3986E-07
4.0476E-09	5.4978E-09	1.0575E-06	-4.6277E-08
-2.7502E-08	-3.2512E-08	1.2143E-06	1.8093E-07
-1.8399E-08	-1.3564E-08	5.3475E-07	-7.3999E-07
-2.8048E-08	-3.4750E-08	4.9899E-07	4.9723E-07
-6.6010E-08	1.5752E-08	9.0431E-07	-8.2427E-07
-3.7820E-08	-1.0208E-08	-3.5682E-07	-1.1497E-08
-2.7852E-08	2.3564E-08	4.2838E-07	-9.7521E-08
-1.2903E-08	2.7394E-08	-5.3155E-07	2.3122E-07
1.3026E-08	-5.7056E-09	3.9412E-07	7.9614E-07
-1.5566E-08	7.4682E-08	2.9370E-07	4.8078E-07
-2.0237E-09	4.7892E-09	8.2821E-07	4.5189E-07
-9.6219E-09	7.0235E-09	1.3690E-07	-1.1969E-07
1.4217E-09	2.2143E-09	2.1753E-07	8.5715E-07
8.9181E-09	-2.1425E-08	8.2030E-07	2.1733E-07
1.1731E-08	9.1279E-10	1.6976E-07	1.8718E-07
8.4910E-09	-5.7978E-08	4.1786E-07	3.5526E-07
1.4961E-08	4.6898E-08	-3.7659E-08	2.5020E-07
1.6618E-08	9.9537E-09	2.5324E-07	9.3914E-07
-1.8782E-08	3.4229E-08	4.5964E-07	3.3672E-07
-5.5813E-08	4.1613E-08	-6.1509E-08	9.0362E-07
-2.6788E-08	2.7046E-08	6.7150E-07	1.0114E-06
-7.2038E-09	8.1563E-08	4.9867E-07	9.5177E-07
3.8755E-08	5.9703E-08	1.0908E-06	9.3547E-07
7.4807E-08	2.7100E-08	6.3649E-07	5.2783E-07
6.4418E-08	2.8403E-08	8.5950E-07	1.2762E-06
6.9310E-08	-3.1516E-08	1.8501E-06	9.3837E-07
4.1978E-08	-1.3166E-08	1.8905E-06	-6.1285E-07
4.1940E-08	-1.8134E-08	-3.1311E-07	-4.7624E-07
5.8191E-08	-9.4195E-09	9.4474E-07	1.6014E-06
1.8535E-08	-7.4327E-08	1.7873E-06	-5.9081E-07
6.4881E-09	-6.0107E-08	9.8212E-08	-2.7852E-08
-2.8508E-08	-4.8510E-08	1.0422E-06	3.2464E-08
-2.4533E-08	1.3647E-09	-2.1826E-07	-2.5455E-07
-1.3060E-08	-8.4940E-10	2.3156E-07	1.2347E-06
-7.4295E-09	-5.8148E-08	1.2790E-06	4.6418E-07
2.9229E-08	-4.3872E-08	1.9154E-07	-9.2532E-08
2.4429E-08	-3.8815E-08	4.1426E-08	1.6317E-06
-2.4811E-08	-6.8135E-08	2.3105E-06	1.4435E-06
-2.3905E-09	-8.5895E-08	1.9002E-06	-7.1948E-07
-6.9169E-08	-6.8598E-08	5.9003E-07	-3.7821E-08
-5.5260E-08	-2.3417E-08	1.7375E-06	-1.1674E-07
-7.8341E-08	-3.6602E-08	1.4680E-07	-1.4591E-06
-7.3851E-10	-2.8110E-08	-5.3925E-07	9.3918E-07
-5.0926E-08	-1.1794E-08	1.2636E-06	6.3467E-07
-2.6594E-08	1.8479E-08	8.8621E-07	3.0008E-07
2.2779E-08	1.5177E-08	1.4675E-06	-2.3229E-07
-4.8835E-09	1.5223E-08	4.8443E-07	-7.4914E-07
-2.8009E-08	4.9969E-08	-7.5374E-08	-4.4203E-07
4.7199E-09	-2.0079E-08	-2.0728E-07	8.1171E-07
-4.0091E-08	-1.3132E-08	1.0858E-06	-4.3263E-08
-3.1802E-08	-4.6345E-08	-9.3319E-07	3.4845E-07
-1.5526E-08	5.6993E-09	1.3287E-06	1.6756E-06
-3.4621E-08	-1.7399E-09	4.9984E-07	-1.0910E-07
-1.9162E-08	3.9711E-08	1.3906E-06	1.9052E-06
1.6914E-08	4.5620E-09	2.5708E-06	-9.0101E-07
3.2482E-09	-4.3528E-09	5.7128E-07	-7.1657E-07
9.1710E-09	-1.3646E-08	1.1312E-06	-9.8965E-07
-9.2569E-09	4.9713E-08	-5.7003E-07	-1.2452E-06
