jMRUI Data Textfile

Filename: Export_to_jmrui.txt

PointsInDataset: 2048
DatasetsInFile: 1
SamplingInterval: 0.250000
ZeroOrderPhase: 0E0
BeginTime: 0E0
TransmitterFrequency: 1.2326E8
MagneticField: 2.8936E0
TypeOfNucleus:  
NameOfPatient:  
DateOfExperiment:  
Spectrometer:  
AdditionalInfo: 
SignalNames:  


Signal and FFT
sig(real)	sig(imag)	fft(real)	fft(imag)
Signal 1 out of 1 in file
9.1903E-07	-2.5596E-07	-4.2621E-07	-4.1935E-07
1.0392E-06	-7.3365E-07	-3.3207E-07	8.8754E-07
4.5089E-07	-9.0057E-07	-1.0834E-07	5.2731E-07
5.9858E-08	-9.1200E-07	1.8540E-08	7.5626E-07
-3.4066E-07	-5.8237E-07	6.9559E-08	5.5040E-07
-5.4211E-07	-2.3536E-07	-8.2232E-08	4.9967E-07
-4.8977E-07	5.0627E-08	-1.7749E-07	1.2571E-06
-2.7647E-07	2.1460E-07	1.1484E-06	7.9629E-07
-6.6514E-08	2.3374E-07	1.0326E-08	2.9536E-07
2.0930E-07	5.0682E-08	1.3424E-06	1.0404E-06
2.4842E-07	-1.4940E-07	7.0202E-07	-1.2506E-06
1.5649E-07	-3.1612E-07	-9.3387E-07	3.2368E-07
-5.8722E-08	-3.3894E-07	3.9524E-07	8.6983E-07
-1.9377E-07	-2.7876E-07	4.6315E-07	1.3335E-07
-2.9459E-07	-1.3249E-07	-1.3388E-07	2.8324E-07
-2.2070E-07	-2.5041E-08	4.5361E-07	8.0705E-07
-1.4545E-07	6.2084E-08	4.2274E-07	4.5706E-08
-9.9240E-08	7.6875E-08	2.2947E-07	7.3322E-07
-8.2110E-08	1.6508E-08	1.0475E-06	1.1557E-07
-3.3548E-08	-7.2897E-08	3.8662E-08	-3.6016E-07
-1.4262E-07	-3.9783E-08	5.7089E-08	7.1303E-07
-1.7921E-07	2.3659E-09	1.1012E-06	6.5195E-08
-1.7312E-07	9.9954E-08	-1.3767E-07	-5.6496E-07
-1.2358E-07	1.7034E-07	1.1328E-07	6.7922E-07
-9.3375E-08	1.4907E-07	7.7847E-07	-2.1833E-07
-2.1721E-08	1.5017E-07	-6.9327E-08	-5.6863E-07
2.4295E-08	1.0847E-07	-6.8013E-07	1.4709E-07
3.7414E-08	1.0836E-09	4.0029E-07	6.1372E-07
2.0901E-11	-5.1954E-09	-3.1904E-07	-6.8720E-07
-7.3127E-08	5.7059E-08	-8.7284E-07	1.0575E-06
-8.0923E-08	1.0441E-07	1.8343E-07	4.8083E-07
-7.5176E-08	1.6317E-07	-6.5439E-07	1.3147E-06
-6.6412E-08	2.0196E-07	1.2387E-06	1.5757E-06
3.0529E-08	2.2395E-07	1.2700E-06	2.5876E-07
1.2380E-07	1.7093E-07	9.5377E-07	-2.5665E-07
1.7110E-07	5.9784E-08	2.1384E-07	-1.4485E-07
1.4698E-07	-6.1074E-09	6.7435E-07	-1.1843E-07
9.2041E-08	-3.8155E-08	-3.0687E-07	-6.2628E-07
6.3502E-08	1.3957E-08	-3.6208E-07	6.8220E-07
7.4218E-08	4.3781E-08	4.9557E-07	2.0940E-07
5.1303E-08	4.0513E-08	-1.3777E-07	-6.5262E-08
1.2638E-07	-1.2464E-08	-3.1748E-07	1.9448E-07
8.0306E-08	-1.5285E-08	-6.4717E-07	9.0313E-07
1.5154E-07	-1.3867E-07	7.1441E-07	1.3141E-06
5.2010E-08	-1.4134E-07	4.2445E-07	-4.9219E-08
-3.3412E-08	-1.7941E-07	-2.4502E-07	9.7778E-07
-3.5773E-08	-8.0310E-08	8.2101E-07	1.2717E-06
-1.1625E-07	-6.9332E-08	1.6948E-06	3.4868E-07
-5.8536E-08	1.6948E-08	2.2310E-07	-1.0157E-06
-1.0546E-08	5.0302E-08	-1.5982E-07	1.1172E-06
2.0257E-08	2.8848E-08	1.3353E-06	-2.7514E-07
8.0488E-08	-8.3915E-10	-4.2653E-07	-8.9536E-08
4.6388E-08	-6.6073E-08	4.4977E-07	8.3628E-08
4.5464E-08	-1.1450E-07	-8.7842E-07	3.0875E-07
-5.6400E-08	-5.4635E-08	4.0227E-07	1.3602E-06
-1.0375E-07	-3.0941E-08	3.9757E-07	8.3537E-07
-1.2488E-07	7.9131E-09	1.4683E-06	8.1510E-07
-9.8441E-08	1.0178E-07	5.2082E-07	-5.6638E-07
-2.9660E-08	8.9871E-08	1.8328E-07	5.5062E-07
1.1552E-08	2.2614E-08	3.3355E-07	2.6121E-07
8.0204E-08	-3.2038E-08	5.0496E-07	8.7458E-07
6.2761E-08	-6.2338E-08	8.7451E-07	3.8600E-07
-3.3096E-08	-6.5043E-08	1.0310E-06	4.4361E-07
-6.7783E-08	-8.7298E-08	8.2444E-07	-3.3303E-07
-9.9338E-08	-2.3667E-08	5.6902E-07	3.2722E-07
-6.2899E-08	2.0950E-08	8.8155E-07	-4.6683E-07
-1.3500E-07	5.5757E-08	6.9405E-09	3.0362E-07
-4.9845E-08	8.8404E-08	1.5966E-06	-7.9947E-09
-9.5784E-09	1.1686E-07	1.7429E-08	-1.5218E-06
-1.6483E-08	8.5919E-08	-7.9409E-07	3.1241E-07
4.0022E-09	4.1717E-08	3.6637E-07	3.7268E-07
-1.9878E-09	3.5867E-08	-4.8241E-08	3.1248E-08
7.8736E-09	4.5752E-08	1.5610E-08	5.5151E-07
6.5729E-08	1.8738E-08	3.0958E-07	5.6376E-07
3.7578E-08	3.2526E-08	6.5093E-07	5.8325E-07
5.8838E-08	2.1376E-08	7.5071E-07	2.0112E-08
1.7575E-08	2.7703E-08	3.4541E-07	6.0809E-08
8.7491E-09	-3.8783E-08	3.4101E-07	6.5696E-08
1.6846E-08	-4.9131E-09	1.7956E-07	5.4810E-07
-3.5642E-08	-2.4904E-08	1.2516E-06	4.4622E-07
-1.7369E-08	2.3984E-08	8.8103E-07	-8.5852E-07
-1.8058E-08	9.1244E-08	-3.2203E-07	-6.5372E-07
-4.7719E-09	1.0104E-07	-4.5247E-07	4.3713E-07
7.0537E-08	6.8732E-08	4.5325E-07	4.9351E-07
1.1219E-07	7.0728E-08	1.2947E-07	2.0247E-07
1.5548E-07	7.9788E-09	7.0200E-07	4.9507E-07
9.0178E-08	-3.9563E-08	3.8215E-07	-4.1427E-07
4.6144E-08	-7.5482E-08	-3.8612E-08	3.5885E-07
-4.1344E-08	-9.1854E-08	4.9339E-07	1.5026E-07
-4.4014E-08	-5.0550E-08	1.8323E-07	1.0879E-07
-4.5783E-08	-2.0677E-08	2.7387E-07	2.5513E-07
-1.1336E-08	7.2508E-08	5.4549E-07	2.4089E-07
-1.6401E-08	5.0093E-08	4.3114E-07	-3.1183E-07
3.7838E-08	2.8625E-08	-1.1954E-07	-1.1102E-07
8.1326E-08	1.6930E-08	-1.1369E-07	2.8935E-07
1.0524E-07	-4.9628E-08	3.5251E-07	3.5710E-07
7.1840E-08	-8.3707E-08	-2.1660E-08	-1.4108E-07
1.5849E-08	-8.9974E-08	-8.1368E-08	6.1492E-07
-1.4957E-08	-2.7538E-08	2.3737E-07	1.2649E-07
-4.3085E-08	-8.6752E-08	-2.0901E-07	6.0712E-07
-4.2349E-08	-3.7248E-08	3.4220E-07	6.4379E-07
-3.8688E-08	-5.1265E-08	4.6658E-07	6.9649E-07
-6.4808E-08	-1.1490E-08	7.1292E-07	-5.6074E-08
-4.6588E-08	3.2585E-09	-3.9734E-07	1.6340E-07
1.6239E-09	5.3309E-09	3.4456E-08	1.1524E-06
-2.8228E-08	1.5852E-08	1.0476E-06	1.0771E-06
-6.0376E-08	3.6640E-10	1.0086E-06	-1.5127E-07
-4.8010E-08	2.5918E-08	1.8059E-07	5.7904E-07
-5.4422E-08	7.3745E-08	1.3698E-06	3.2663E-07
-2.9905E-08	-3.3042E-09	5.2711E-07	-3.8797E-07
9.4893E-09	1.3182E-08	3.7674E-07	1.5446E-08
-1.4024E-08	7.9167E-09	5.0485E-07	5.1119E-07
1.6432E-08	1.5603E-08	1.7068E-06	-6.1717E-07
6.0496E-10	-2.3152E-08	-8.1912E-07	-1.6681E-06
-5.0660E-08	-2.8039E-08	-8.9809E-07	9.4802E-07
-7.0688E-08	1.4715E-08	3.9511E-07	3.6358E-07
-4.2173E-08	7.6679E-08	-5.4073E-08	3.2529E-07
-4.5479E-08	7.5297E-08	1.4953E-07	4.5850E-07
6.0890E-09	8.7739E-08	3.4709E-07	5.0461E-07
7.9904E-10	7.0915E-08	3.1759E-07	7.8724E-08
2.7785E-08	5.7369E-08	-4.3329E-08	5.1115E-07
3.2103E-09	3.9509E-09	6.0925E-07	4.5095E-07
5.2865E-08	1.5182E-08	6.4644E-08	-6.4622E-09
4.3492E-08	2.1764E-08	-5.3258E-09	7.9126E-07
7.3436E-09	-3.5281E-08	7.8299E-07	5.6962E-07
6.9027E-09	-1.6509E-08	3.2541E-07	-1.5452E-07
2.3028E-08	2.6232E-08	-3.2053E-07	7.3446E-07
-8.9771E-09	2.0407E-08	1.0325E-06	9.6491E-07
6.4084E-09	5.8024E-09	4.8048E-07	-1.7045E-07
-1.2344E-08	4.8562E-09	4.4319E-07	7.1841E-07
4.0268E-08	2.2821E-08	5.8613E-07	-7.5635E-08
3.2324E-08	1.3932E-08	4.2563E-07	6.7870E-07
4.2091E-08	1.7403E-08	6.7089E-07	-5.3265E-07
-1.2496E-08	4.0495E-09	-7.3674E-07	8.3041E-07
5.7123E-08	-1.5501E-08	1.1928E-06	1.0613E-06
2.8880E-08	-3.4372E-08	8.6899E-07	4.7120E-07
6.3472E-08	-3.8845E-08	1.7012E-06	-3.6358E-07
4.6650E-08	-5.6391E-08	-4.0229E-07	-9.3176E-07
2.0128E-08	-2.2127E-08	1.4735E-07	7.6769E-07
1.7637E-08	-3.2274E-08	4.8718E-07	2.6442E-08
-4.6313E-08	-2.8457E-08	4.3244E-07	2.4805E-07
-3.1204E-08	-2.0979E-09	3.8406E-07	-8.0672E-08
-6.3701E-08	-1.0653E-08	-2.6821E-08	3.7587E-08
-2.8292E-08	2.5476E-09	1.6110E-07	9.2799E-07
-4.8394E-08	1.0796E-08	1.3318E-06	-1.2420E-07
2.1076E-08	-1.5509E-08	-5.3303E-07	-2.9495E-07
-8.0198E-09	-4.3105E-09	7.1948E-07	7.1919E-07
-6.4097E-09	-2.1009E-09	-2.1192E-07	-3.4798E-07
-1.2176E-08	-9.1718E-10	4.8867E-07	1.2113E-06
1.3358E-08	-8.3577E-09	6.2561E-07	-5.6011E-07
-4.0965E-08	-1.5555E-08	-3.8095E-07	8.5660E-07
-1.8839E-08	2.2616E-08	1.1594E-06	6.9798E-07
-2.8313E-08	-4.9486E-09	8.7646E-07	-1.9063E-07
-2.9351E-08	1.8186E-08	3.7565E-07	-3.2433E-07
-2.1648E-08	-4.4719E-09	2.0780E-07	-1.6872E-07
-3.3008E-08	2.1893E-09	-2.2801E-07	-7.5993E-08
-3.0409E-09	-8.7878E-11	1.1437E-07	4.9189E-07
3.4857E-08	1.2491E-08	-2.9558E-08	1.1601E-07
4.1528E-09	-4.5083E-09	2.0903E-07	9.3301E-07
1.4058E-08	-4.5308E-09	9.7455E-07	8.3920E-08
-2.5194E-08	-1.5847E-08	6.8974E-08	-4.9346E-07
2.3865E-08	2.4358E-08	-6.2037E-07	4.5156E-07
1.6688E-08	-1.9656E-08	7.3431E-07	7.6375E-07
-5.0255E-08	-1.5465E-08	-2.2534E-07	-5.9540E-07
-1.2824E-08	5.3140E-09	-6.3926E-07	1.2086E-06
-4.3331E-08	-2.2332E-08	3.1875E-07	7.0426E-07
-3.1236E-08	1.8626E-08	3.1124E-08	1.3862E-06
-3.5065E-08	5.5873E-08	1.3350E-06	8.2252E-07
-4.6076E-09	1.6654E-08	4.6901E-07	9.8840E-08
-3.2265E-09	4.8108E-08	2.9746E-07	6.4183E-07
5.0224E-08	1.4736E-08	4.9342E-07	8.5170E-07
2.3807E-08	3.3438E-08	9.0951E-07	1.1026E-06
2.2199E-08	-4.0306E-08	1.9307E-06	4.5471E-07
2.3775E-08	-2.8554E-08	8.6369E-07	-8.8189E-07
3.1812E-08	-4.8271E-08	4.6253E-07	3.1037E-07
4.1817E-08	-6.4071E-08	8.8900E-07	-6.3336E-07
-1.5416E-08	-2.5245E-08	-2.6470E-07	-4.4778E-08
1.2998E-08	4.5927E-11	2.6952E-07	2.5541E-07
-6.1120E-09	-3.1731E-08	1.5996E-07	8.9812E-07
1.3501E-09	-2.4813E-08	1.7402E-06	4.2162E-07
4.1958E-08	4.8150E-09	7.5749E-07	-9.4359E-07
9.6084E-09	-3.6467E-08	3.0111E-07	-4.1413E-07
1.8666E-09	-2.1922E-08	-1.6926E-07	-7.0877E-07
-3.9990E-08	-2.6784E-08	-6.7450E-07	5.6752E-07
1.5240E-08	-6.1651E-08	9.8352E-07	6.8889E-07
1.0452E-08	-7.2666E-08	4.0905E-07	-8.3834E-07
-1.6751E-08	-3.6336E-09	-4.5000E-07	-3.7071E-08
-7.8202E-08	-3.6342E-08	-3.4566E-07	1.7418E-07
-1.6453E-08	-4.2814E-08	-9.7309E-08	8.9360E-07
3.8012E-09	5.8544E-10	4.8121E-07	3.1660E-07
-3.5553E-08	2.1073E-08	2.7347E-07	4.5409E-07
-3.7203E-09	1.3196E-08	2.8764E-07	-1.7875E-07
5.6593E-09	1.2141E-09	-2.1071E-07	9.2541E-07
-6.1044E-08	-1.7171E-08	1.5130E-06	-5.8909E-08
-3.0225E-08	1.5152E-08	-6.2274E-07	-1.0345E-06
1.8335E-08	-1.3192E-08	-5.2356E-07	3.2824E-07
-1.6683E-10	3.2512E-08	-1.2531E-06	1.1598E-07
1.2946E-08	-3.5527E-08	-8.4713E-07	2.3693E-06
-1.3738E-08	-4.1452E-08	1.4387E-06	1.6131E-06
-6.1141E-09	-1.9940E-09	7.8218E-07	2.8283E-07
-1.5127E-08	-2.9512E-08	6.0135E-07	9.1616E-07
2.7146E-08	9.7537E-09	1.4462E-06	2.0810E-07
2.6079E-08	1.1986E-09	3.9144E-07	-7.7048E-07
-7.2702E-09	-1.6166E-08	-4.6995E-07	2.8413E-08
1.3145E-08	-6.8354E-09	-1.9535E-07	5.7470E-07
