jMRUI Data Textfile

Filename: Export_to_jmrui.txt

PointsInDataset: 2048
DatasetsInFile: 1
SamplingInterval: 0.250000
ZeroOrderPhase: 0E0
BeginTime: 0E0
TransmitterFrequency: 1.2326E8
MagneticField: 2.8936E0
TypeOfNucleus:  
NameOfPatient:  
DateOfExperiment:  
Spectrometer:  
AdditionalInfo: 
SignalNames:  


Signal and FFT
sig(real)	sig(imag)	fft(real)	fft(imag)
Signal 1 out of 1 in file
7.0037E-07	-1.9510E-07	6.4377E-07	-1.2195E-06
7.2463E-07	-4.7791E-07	-9.0796E-07	3.8526E-07
3.5085E-07	-6.3114E-07	7.5753E-07	-5.2809E-08
7.3810E-09	-6.3919E-07	-1.0315E-06	-3.6774E-07
-2.8422E-07	-4.0726E-07	-3.3095E-07	9.0110E-07
-3.7191E-07	-1.1939E-07	-1.7245E-07	6.7630E-07
-3.3384E-07	6.4156E-08	1.9389E-07	6.4145E-07
-1.5541E-07	1.8643E-07	-1.7250E-07	9.9867E-07
-4.0713E-09	1.4020E-07	1.1494E-06	9.9823E-07
1.6590E-07	1.8683E-08	6.5728E-07	1.1602E-07
2.0641E-07	-7.7165E-08	9.4629E-07	7.0472E-08
1.0589E-07	-2.1105E-07	-1.1156E-07	-4.1005E-07
-1.5202E-08	-2.0967E-07	4.1260E-08	7.7218E-07
-1.5403E-07	-1.9121E-07	5.1871E-07	5.5441E-07
-2.1253E-07	-1.0638E-07	9.5097E-07	6.8125E-07
-1.9238E-07	3.8166E-08	1.5251E-06	-3.2346E-07
-1.3676E-07	1.4714E-07	6.8937E-09	-1.3099E-06
-1.0667E-07	1.0814E-07	-4.5666E-07	7.5708E-07
-3.1899E-08	8.8210E-08	1.0622E-06	-4.6906E-07
-7.6621E-09	-4.6646E-09	-9.6574E-07	1.0326E-07
-7.4978E-08	-1.1924E-08	9.6394E-07	4.0893E-07
-1.3292E-07	1.1614E-08	-9.5759E-07	4.6418E-08
-1.9706E-07	6.7410E-08	1.3298E-06	1.5352E-06
-1.3430E-07	8.7009E-08	4.1427E-07	-7.9073E-07
-1.0477E-07	9.5290E-08	5.4559E-07	8.8665E-07
-9.1896E-09	9.4473E-08	5.0385E-07	-4.1670E-07
1.0475E-08	8.6330E-08	8.1930E-07	8.0795E-07
3.4947E-08	1.1160E-08	9.5429E-07	-1.1407E-06
-1.1697E-08	-6.0221E-09	-4.3033E-07	9.0271E-09
-4.1061E-08	7.8040E-09	2.3081E-07	1.9653E-07
-9.2888E-08	7.8982E-08	6.0972E-07	5.0853E-07
-6.4160E-08	1.3038E-07	5.4963E-07	-5.4537E-07
-4.6945E-08	2.0076E-07	2.0140E-08	4.3669E-07
3.1418E-08	1.4647E-07	8.5713E-07	-1.4797E-07
9.7906E-08	1.5062E-07	1.0294E-08	-2.3469E-07
1.1784E-07	9.0075E-08	-6.2107E-08	4.0847E-07
1.1612E-07	3.0872E-08	9.8418E-07	9.0599E-07
5.8663E-08	-6.5014E-09	1.3214E-06	-5.8457E-07
9.3374E-08	1.8782E-08	4.3890E-07	-6.0021E-07
3.9149E-08	4.6620E-08	-5.6965E-08	-7.2724E-07
5.3734E-08	-1.6444E-08	-2.8171E-07	4.3115E-07
1.0328E-07	-2.7364E-09	4.5837E-07	2.8891E-07
8.9453E-08	-4.8970E-09	7.6127E-07	5.8446E-07
7.8448E-08	-6.5143E-08	1.1996E-06	-4.3275E-07
3.5393E-08	-1.3608E-07	8.4794E-07	-1.8541E-07
2.5017E-08	-1.3133E-07	1.1279E-06	-1.5096E-06
-7.3533E-08	-9.1987E-08	-5.4038E-07	-9.2577E-07
-5.3024E-08	-2.7111E-08	3.8866E-07	-1.0181E-06
-5.5245E-08	3.1560E-08	-1.4511E-06	-1.2281E-06
5.1072E-09	5.6922E-09	-1.2164E-06	4.0457E-07
4.5129E-09	1.6226E-08	-8.8071E-07	9.5499E-07
7.1516E-08	1.4215E-09	5.3599E-07	9.7394E-07
4.0249E-08	-5.0141E-08	-2.2194E-07	1.9637E-07
1.2412E-08	-6.6566E-08	7.8498E-07	1.2985E-06
-3.0860E-08	-8.3784E-08	1.0142E-06	-8.2358E-07
-6.2146E-08	-2.4044E-08	-7.0779E-07	1.1004E-08
-9.5666E-08	2.4925E-09	1.6069E-07	7.8017E-07
-8.9160E-08	4.7637E-08	6.3240E-07	6.9295E-07
-4.6046E-09	5.3609E-08	9.9075E-07	-7.9819E-08
5.3964E-10	1.3081E-08	2.1627E-07	-8.3452E-08
3.5318E-08	6.4559E-09	6.6240E-07	7.7108E-08
1.9676E-08	-2.2103E-08	2.7533E-07	-1.4998E-07
-5.3833E-09	-5.1611E-08	7.0706E-07	1.6079E-08
-6.4644E-08	-6.8946E-08	7.9121E-08	-6.9039E-07
-6.3293E-08	-3.4318E-08	-2.6812E-07	5.4205E-07
-1.0304E-07	9.0954E-09	1.0312E-06	4.8998E-07
-1.1373E-07	6.4894E-08	1.0667E-06	-6.5646E-07
-7.1995E-08	5.7519E-08	-3.5378E-08	-1.0193E-06
-8.1985E-08	9.2926E-08	-3.8823E-07	1.0525E-08
-4.5967E-08	3.8272E-08	2.6157E-07	-4.0979E-08
-3.1140E-09	1.1062E-08	-3.3515E-08	-8.7607E-08
2.2286E-08	3.3444E-08	3.0981E-07	-2.0664E-07
1.4712E-08	6.9133E-08	-7.4897E-07	-3.6803E-07
1.4815E-08	2.3245E-08	-2.5351E-07	1.4739E-06
9.6898E-09	5.1649E-08	1.5857E-06	4.3566E-07
3.5331E-08	6.2560E-08	7.4520E-07	-6.5015E-07
4.8279E-08	3.6729E-09	4.5327E-07	-6.8803E-07
5.2087E-08	-1.9984E-08	-2.4378E-07	-5.8831E-07
1.5229E-08	-7.3449E-08	1.1777E-07	-2.6308E-07
-7.5922E-09	-3.3235E-09	-6.4219E-07	-6.6996E-07
-6.9616E-08	1.5722E-08	-6.8044E-07	7.5603E-07
-3.9065E-08	3.7055E-08	4.5487E-07	6.2784E-07
3.8948E-08	7.0140E-08	8.8476E-07	8.6838E-08
9.1001E-08	5.8741E-08	4.5655E-07	-1.1297E-06
7.1347E-08	6.4876E-08	-7.5918E-07	-5.7518E-07
1.4059E-07	1.6183E-08	-6.5759E-07	-2.6771E-07
9.3224E-08	-3.7465E-08	-1.0415E-06	6.5827E-07
1.0065E-07	-2.9967E-08	4.3338E-07	5.7272E-07
5.6224E-09	-4.2700E-08	-6.9571E-07	-2.8095E-07
-5.8947E-08	-7.7334E-08	-4.7624E-07	1.0756E-06
-2.2592E-08	-3.9528E-08	3.0763E-09	5.0523E-07
-5.4624E-08	-1.7087E-09	-2.2480E-07	8.9608E-07
-4.6168E-08	3.6757E-08	2.7903E-07	1.1516E-06
3.6140E-08	4.2879E-08	1.2005E-06	6.7995E-07
6.8184E-08	-7.4467E-09	3.2050E-07	-4.7361E-07
8.9825E-08	-3.6791E-08	-4.7813E-08	5.1532E-07
6.8919E-08	-4.6616E-08	-1.6616E-08	2.3781E-07
3.2589E-08	-4.4265E-08	3.8636E-07	1.2459E-06
-1.2328E-08	-6.8397E-08	9.7472E-07	-2.8951E-07
-2.2927E-08	-2.9874E-08	-4.2930E-07	4.7312E-07
-2.8418E-08	-6.3070E-08	5.1942E-07	7.6724E-07
-6.2330E-08	-2.3383E-09	6.6888E-07	1.1870E-06
-1.5378E-08	-6.9544E-09	1.9498E-06	-1.1352E-07
-5.4254E-08	-2.6791E-08	2.7032E-07	-4.5563E-07
-4.7700E-09	5.8697E-10	1.1847E-06	-3.7894E-07
-3.8199E-08	2.2001E-09	-6.1934E-07	-1.0499E-06
-1.3177E-08	-5.8084E-08	-1.7448E-07	8.2218E-07
-1.2815E-08	-5.9563E-08	4.5243E-07	1.9547E-07
-3.8330E-08	6.0718E-09	7.4166E-07	2.1300E-07
-2.5801E-08	2.3067E-08	4.0418E-07	-8.0267E-07
-2.1691E-08	5.1804E-08	-6.0798E-07	-1.8044E-07
-7.3583E-09	4.1766E-09	-1.5764E-07	6.1272E-07
1.8650E-08	-9.0355E-09	4.1874E-07	2.3182E-07
8.9067E-09	7.8526E-09	-2.8688E-08	3.5544E-09
-2.0116E-08	-3.7230E-08	-2.4269E-07	1.1749E-07
4.9928E-09	1.2111E-08	-6.8535E-07	1.2144E-06
-4.5291E-08	-6.8598E-09	1.5780E-06	1.6413E-06
1.0800E-08	4.6317E-08	1.3073E-06	-8.2552E-07
-2.9721E-08	2.0384E-08	-2.1103E-07	1.9679E-07
3.8010E-08	1.6486E-08	1.2872E-06	5.2861E-07
-3.0787E-09	6.4591E-08	8.5692E-07	-1.1347E-06
4.2170E-08	2.9702E-08	-2.9093E-07	-4.8029E-07
1.5011E-08	1.6462E-08	-1.2780E-07	-6.0736E-07
1.2860E-08	-3.1751E-09	-1.2214E-06	3.1104E-07
4.7129E-08	-2.9181E-08	3.3707E-07	9.9764E-07
1.8620E-08	-1.1173E-08	-1.1309E-07	7.6002E-08
-1.0504E-10	-1.6428E-08	1.2218E-07	8.6542E-07
3.0450E-08	-1.9185E-08	2.7435E-07	2.8738E-07
-1.1792E-08	-3.4930E-08	6.5627E-08	6.3547E-07
3.1904E-08	2.3231E-08	3.6602E-07	8.5642E-07
-3.6070E-09	1.6080E-08	1.0329E-06	5.5034E-07
2.7225E-09	3.8430E-08	5.9580E-07	-1.0863E-07
-5.2624E-09	1.5633E-08	3.4074E-07	-7.3576E-09
6.8030E-09	-1.2291E-08	-1.5991E-07	4.1412E-07
3.7087E-08	1.6437E-10	9.8455E-07	8.8999E-07
2.6059E-08	-2.4625E-08	9.4064E-07	-5.2411E-07
-3.6360E-09	-5.3700E-08	-2.6331E-07	-5.4846E-07
2.3358E-08	-5.7634E-08	-9.3992E-07	1.0218E-06
3.4074E-08	-7.1303E-08	1.5336E-06	1.6180E-06
-3.1453E-08	-3.7969E-08	9.2429E-07	-8.2431E-07
2.4057E-08	1.4794E-08	-7.3747E-08	8.3072E-07
-1.2111E-08	-1.8942E-09	1.5623E-06	4.2736E-07
-5.1671E-08	-1.7328E-08	9.5704E-07	-7.5915E-07
-4.1514E-08	-1.2052E-08	4.5678E-08	-5.3752E-07
4.8392E-09	-2.9751E-08	6.4421E-08	-1.8512E-07
-2.4483E-08	-3.7036E-08	-4.9570E-07	2.7153E-07
-2.2668E-08	2.6314E-08	9.6615E-07	9.2266E-07
-4.0347E-08	1.5328E-09	3.3093E-07	-8.6504E-07
-4.8409E-08	2.6668E-08	-7.3633E-08	9.4041E-07
-1.9599E-08	-1.8127E-10	1.1057E-06	-6.7654E-07
-1.3011E-08	-2.6807E-08	-1.1680E-06	-1.8107E-09
-6.4829E-08	4.7213E-09	5.3444E-07	1.1372E-06
-2.3629E-08	1.5477E-08	9.2601E-08	1.2453E-07
-4.6642E-08	4.7776E-08	4.7975E-07	1.3025E-06
-2.3722E-08	2.6163E-08	1.3211E-06	1.6581E-07
-2.8395E-08	2.5204E-08	5.1962E-07	3.2341E-07
2.1573E-08	-9.3292E-09	1.7479E-06	1.1345E-07
3.8841E-08	2.0660E-08	5.4716E-07	-1.6466E-06
3.9701E-08	2.8257E-08	-9.6116E-07	6.9034E-09
2.6510E-08	-5.5084E-09	6.2384E-07	8.1119E-07
1.4958E-08	-6.7370E-09	7.0719E-07	-5.9586E-07
9.3119E-09	-3.3081E-08	-6.0757E-07	-3.2407E-08
-1.2776E-08	-1.2221E-08	5.4507E-07	1.0416E-06
3.2842E-09	-7.9710E-09	1.0300E-06	-4.2395E-07
-4.2726E-08	-5.6849E-09	-1.8327E-07	-1.4529E-07
-1.7221E-08	-1.8640E-09	6.2862E-07	2.4565E-07
-5.4613E-08	2.9057E-08	8.7881E-08	-4.5401E-07
-1.2506E-08	2.0199E-08	2.2627E-07	2.9244E-07
-2.2274E-08	5.0185E-08	-2.3486E-08	-6.4849E-07
4.4363E-08	3.2362E-08	-5.5753E-07	8.9625E-07
4.5209E-08	1.4366E-09	7.9583E-07	-9.5623E-08
1.3435E-08	9.9271E-09	-9.7920E-07	5.2155E-07
4.5018E-08	-1.0917E-08	1.1786E-06	1.0586E-06
-1.0204E-09	-4.6909E-08	-9.1969E-08	-2.3537E-07
6.8027E-08	-2.5344E-08	6.4488E-07	1.0840E-06
1.9226E-08	-2.9806E-08	5.2399E-07	-4.4496E-08
2.4072E-09	-2.2161E-08	8.5451E-07	6.0987E-07
-8.7652E-09	-2.6593E-08	4.5850E-07	-4.7320E-07
-6.7925E-09	1.4627E-08	5.4835E-07	5.5239E-07
1.5697E-08	1.3662E-08	5.1380E-07	-7.8457E-07
3.2143E-08	5.4533E-09	-4.2255E-07	5.3912E-07
2.4429E-09	-1.1554E-08	7.8949E-07	3.6998E-07
6.7003E-09	-2.8648E-08	3.3781E-07	-8.7896E-09
1.8029E-08	-5.3139E-08	1.3592E-07	3.8419E-07
3.8213E-09	-4.5370E-08	1.2823E-06	7.3774E-07
-3.7127E-08	-1.3781E-08	1.0696E-06	-1.3266E-06
-3.3814E-08	-1.1263E-08	-5.4447E-07	-2.5912E-07
-7.0363E-08	-1.4584E-08	3.9762E-07	-2.8274E-07
-2.3786E-08	-4.0104E-08	-7.2893E-07	-1.6893E-07
-1.2960E-08	-2.7788E-08	9.9497E-08	7.1055E-07
-1.1863E-08	6.2227E-08	2.3457E-07	9.9022E-08
-2.2606E-08	-1.0177E-08	1.8761E-07	2.6467E-07
-7.9890E-09	1.6694E-08	2.8615E-07	-3.1240E-08
-3.2632E-08	-3.0608E-09	-1.7115E-07	-2.0926E-07
-9.5262E-09	-2.8242E-08	-6.9031E-07	3.8382E-07
-3.3899E-08	-1.2065E-08	-8.4176E-09	1.1479E-06
-1.2787E-08	2.2840E-08	4.9856E-07	4.8404E-07
1.6318E-08	-1.4253E-08	5.7362E-08	6.3160E-07
3.8161E-08	2.8325E-08	4.8553E-07	6.2934E-07
1.8909E-08	5.3102E-08	2.1988E-07	8.7937E-07
-1.7991E-08	6.6260E-09	1.5027E-06	7.3368E-07
-1.8486E-08	-6.7900E-10	5.5172E-07	-7.3095E-07
2.0436E-08	2.0639E-08	-8.6769E-08	5.2354E-07
4.3403E-08	-1.5403E-08	7.0248E-07	3.7433E-07
