jMRUI Data Textfile

Filename: Export_to_jmrui.txt

PointsInDataset: 2048
DatasetsInFile: 1
SamplingInterval: 0.250000
ZeroOrderPhase: 0E0
BeginTime: 0E0
TransmitterFrequency: 1.2326E8
MagneticField: 2.8936E0
TypeOfNucleus:  
NameOfPatient:  
DateOfExperiment:  
Spectrometer:  
AdditionalInfo: 
SignalNames:  


Signal and FFT
sig(real)	sig(imag)	fft(real)	fft(imag)
Signal 1 out of 1 in file
6.0853E-07	-1.5337E-07	-9.2352E-07	-3.7436E-07
5.2525E-07	-3.6689E-07	1.1765E-07	1.1635E-06
2.3648E-07	-4.5248E-07	-1.8112E-07	-2.4675E-07
4.8723E-08	-4.6975E-07	-3.5559E-07	1.2552E-06
-2.3698E-07	-2.7687E-07	5.6433E-07	5.4408E-07
-2.5864E-07	-1.0421E-07	5.0122E-07	7.5004E-07
-2.7088E-07	7.2788E-08	8.9906E-07	-2.9236E-07
-1.4337E-07	1.0834E-07	-3.3787E-07	-1.2188E-07
2.2769E-10	1.2575E-07	2.7029E-07	5.3674E-07
1.3129E-07	4.8718E-08	3.6173E-07	-2.3777E-07
1.0297E-07	-1.0387E-07	-5.3988E-07	1.4554E-07
1.1501E-07	-2.0162E-07	4.2691E-07	8.5370E-07
-2.3318E-08	-2.4465E-07	3.3506E-07	-4.0656E-07
-1.0367E-07	-1.7304E-07	-4.5274E-07	5.1225E-07
-1.5690E-07	-6.0133E-08	4.6867E-07	4.7705E-07
-1.4061E-07	1.5166E-08	1.4031E-07	2.1522E-07
-7.8526E-08	7.9981E-08	1.5855E-07	2.2426E-07
-5.1928E-08	1.0411E-07	3.5398E-08	7.4322E-07
4.8772E-12	7.4278E-08	1.1362E-06	4.0462E-07
-1.8764E-08	4.1723E-08	3.7769E-07	-5.5148E-07
-2.7159E-08	1.0233E-08	-1.0712E-07	-3.6019E-08
-7.3620E-08	-2.8770E-09	3.0506E-08	4.9626E-07
-1.1073E-07	2.6134E-08	9.4585E-07	-7.0197E-08
-8.8167E-08	6.2938E-08	-5.9163E-07	-7.5514E-07
-8.8283E-08	1.1064E-07	-4.0787E-07	1.0158E-06
-5.3980E-09	8.6146E-08	5.1319E-07	4.5472E-07
-9.4605E-09	5.0313E-08	5.3113E-07	3.1888E-07
5.7544E-08	-6.1500E-10	3.4667E-07	-2.4784E-07
-5.7424E-08	4.5875E-09	-3.7644E-08	1.0152E-07
-8.2463E-08	2.3054E-09	3.2120E-08	3.4152E-07
-7.5930E-08	5.7120E-08	7.4745E-07	9.8526E-08
-4.0829E-08	7.2783E-08	-6.8056E-07	-6.6156E-07
-1.5444E-08	1.5754E-07	-2.3476E-07	1.4334E-06
2.9723E-08	1.4492E-07	4.7841E-07	-1.4485E-08
4.8818E-08	1.0309E-07	-5.2337E-08	1.3741E-06
8.8113E-08	8.2784E-08	1.6028E-06	2.3894E-07
1.2100E-07	2.4964E-08	6.3938E-07	3.3842E-08
1.1154E-07	-2.1871E-09	1.1975E-06	-8.6296E-07
3.7017E-08	-1.0305E-08	-5.5954E-07	-8.3563E-07
1.0762E-08	2.7213E-10	-3.6186E-07	-9.5533E-08
1.4751E-08	6.0075E-08	-4.7965E-07	5.8396E-07
6.7783E-08	1.9216E-08	5.2716E-07	1.9341E-07
1.0013E-07	3.4992E-09	-4.0619E-07	1.2444E-10
8.1979E-08	-4.4330E-08	-2.7064E-07	6.5187E-07
3.5004E-08	-6.4288E-08	4.6174E-07	1.2443E-06
-3.2112E-09	-1.0070E-07	9.6636E-07	-2.4502E-07
-3.2400E-08	-5.9572E-08	-1.7562E-08	8.6864E-07
-2.8631E-08	-4.5242E-08	1.8077E-06	-5.0996E-07
-1.5206E-08	-9.4818E-10	-9.4326E-07	-4.5263E-07
-1.0370E-08	4.6571E-08	1.3170E-06	4.9050E-07
2.5397E-08	-1.6668E-09	-4.9928E-07	-1.4631E-06
5.3462E-08	-2.5880E-08	-5.9590E-07	6.5426E-07
7.8099E-08	-3.1183E-08	-2.5235E-07	5.2128E-08
3.2450E-08	-7.5135E-08	-3.8873E-07	7.4858E-07
-7.0214E-08	-6.8728E-08	3.7986E-08	1.0815E-06
-5.8271E-08	-7.6068E-08	1.0397E-06	6.6358E-07
-1.2232E-07	5.4760E-09	2.2366E-07	1.9310E-07
-7.7692E-08	3.9373E-08	1.0903E-06	5.4571E-07
-8.0589E-09	5.5100E-08	4.3506E-07	-4.2646E-07
-3.4446E-08	5.5629E-08	6.2383E-07	2.1432E-07
6.0517E-08	3.5322E-08	5.4250E-07	-4.1883E-07
6.0084E-08	-1.6935E-08	5.8836E-07	-7.4890E-07
2.9190E-08	-4.8704E-08	-1.1265E-06	-8.9006E-07
-2.6143E-08	-9.4398E-08	-2.8294E-07	9.3737E-07
-1.0683E-07	-5.5503E-08	-1.0267E-07	-3.1851E-07
-6.4799E-08	-5.8079E-09	-4.2398E-07	6.3863E-07
-1.0828E-07	4.4582E-08	-2.2341E-07	1.3844E-07
-1.0972E-07	6.2770E-08	-3.2187E-07	1.0409E-06
-6.9103E-08	7.2158E-08	2.4267E-07	5.0608E-07
-3.3660E-08	7.7422E-08	6.2899E-08	1.1324E-06
-2.2075E-08	6.7688E-08	1.0834E-06	4.3766E-07
2.8825E-08	6.0363E-08	2.0084E-07	1.3245E-07
3.4356E-08	3.5120E-08	7.0365E-07	2.5407E-07
6.0257E-09	2.7176E-08	-1.3195E-07	-2.3380E-07
5.6510E-08	1.9990E-08	2.1702E-07	7.7039E-07
1.8430E-08	2.0555E-08	1.5295E-07	-2.4082E-07
2.1417E-08	-5.0428E-09	-1.4945E-07	1.2319E-06
2.2159E-08	1.2286E-08	1.2819E-06	-2.3625E-07
-2.0228E-08	1.6808E-08	-9.1483E-07	1.0381E-07
-1.6241E-08	-2.4991E-08	6.1759E-07	8.0160E-07
-1.4977E-08	2.5898E-08	-5.6918E-07	5.5955E-07
1.3966E-08	3.3630E-08	1.3708E-06	1.6008E-06
-6.5113E-09	8.5468E-08	8.9991E-07	-4.6700E-07
1.0303E-08	4.0298E-08	6.7907E-07	3.5247E-07
2.4027E-08	1.0593E-08	4.3558E-07	-6.3797E-07
8.1663E-08	-5.5383E-09	-3.2640E-07	5.2796E-08
5.2925E-08	-4.4420E-08	-2.0327E-07	8.1214E-07
2.5155E-08	-5.8547E-08	1.2257E-06	4.3909E-07
5.9250E-08	-5.8197E-08	-5.7665E-07	-5.9613E-07
4.6384E-09	-4.9403E-08	3.1542E-07	1.6865E-06
-6.9251E-08	-1.1309E-09	1.1859E-06	-6.1328E-07
-3.9564E-08	1.0166E-08	-7.6071E-07	-1.1351E-07
-9.2646E-09	5.0752E-08	-4.5721E-07	1.0870E-06
1.4317E-08	2.9709E-08	8.0216E-07	1.4061E-06
7.9123E-08	3.6562E-08	8.5648E-07	1.7362E-07
6.6629E-08	-4.7047E-09	4.8035E-07	5.5421E-07
-9.3647E-09	-5.2889E-08	5.9851E-07	2.5834E-07
4.4622E-08	-3.6903E-08	4.4730E-07	3.8576E-07
-4.9185E-09	-1.7652E-08	3.0340E-07	6.6798E-07
-9.0980E-09	-2.5360E-08	1.4604E-06	6.2189E-07
-3.7867E-09	-2.8915E-08	5.2491E-07	-7.2305E-07
-2.3065E-08	5.6289E-10	2.4641E-07	1.2654E-07
2.0071E-08	1.0195E-09	-6.0806E-07	-6.0631E-08
-9.6971E-09	-1.1770E-08	4.2870E-07	1.8989E-06
1.6297E-09	4.9671E-10	1.1317E-06	-4.7736E-08
-2.4908E-08	-7.1392E-09	4.9193E-07	1.1744E-06
-6.1125E-09	-4.0055E-09	1.9157E-06	-2.2388E-07
-8.8397E-09	8.2775E-09	9.6342E-08	-8.0012E-07
8.6927E-09	3.0910E-08	-5.6504E-07	4.1260E-07
-4.8775E-08	-1.0019E-08	8.7166E-07	1.5961E-06
-3.9800E-08	-2.2264E-08	1.1809E-06	-2.5414E-07
1.9786E-09	8.8398E-09	6.5264E-07	1.1137E-06
-3.5759E-08	2.3829E-08	2.1290E-06	-7.0973E-07
1.5932E-08	-7.4886E-09	-3.9762E-07	-4.7656E-07
4.3840E-09	7.4172E-09	1.2449E-06	5.9941E-07
-1.4776E-08	3.6178E-08	8.3027E-07	-1.1260E-06
-2.2846E-08	6.1358E-08	-6.3753E-07	-3.8215E-07
-3.5275E-08	-1.5030E-08	9.4908E-08	9.5218E-07
-1.5247E-08	2.3610E-08	6.3092E-07	1.9915E-07
-3.7379E-08	6.9420E-08	6.6361E-07	1.0174E-06
6.2914E-10	3.8333E-08	1.9538E-06	-4.8782E-07
-3.6535E-09	-5.3233E-10	-1.8463E-07	-9.3067E-07
1.3458E-08	3.8081E-08	2.4115E-07	4.7454E-07
3.9506E-08	-1.5500E-08	8.0439E-07	3.8976E-08
2.3469E-08	-1.2513E-08	6.1036E-07	-3.7456E-07
-1.5934E-08	-3.4251E-08	4.3359E-07	-1.3352E-07
-3.7492E-08	-1.3932E-08	6.0360E-07	-8.8823E-07
-4.0120E-08	-1.7203E-10	-1.0908E-06	-6.7847E-07
-2.4783E-08	2.4303E-08	-6.2730E-07	1.2708E-06
-2.5420E-08	7.0300E-08	1.0614E-06	5.8222E-07
1.0433E-08	2.3676E-08	-3.7481E-07	-4.5037E-07
-1.1384E-09	1.6919E-08	-2.2907E-07	1.6761E-06
4.5830E-08	2.5480E-08	1.1556E-06	6.1111E-07
4.5886E-08	3.5791E-08	7.2185E-07	1.0962E-06
5.1528E-08	1.9079E-08	2.0093E-06	-2.5573E-07
8.2693E-08	2.0156E-09	-1.4351E-07	-3.3463E-07
6.1119E-08	1.9305E-09	1.1613E-06	7.3556E-07
1.5350E-08	-2.4387E-08	9.6051E-07	-2.9390E-07
8.1379E-09	-8.2663E-08	1.0469E-06	-2.6888E-07
-5.1922E-09	-5.8266E-08	2.3518E-07	-4.5311E-07
-4.6150E-08	-2.3966E-08	9.3969E-07	2.9836E-07
-3.2465E-08	-1.6291E-08	9.8942E-07	-7.7432E-07
-6.2001E-09	3.0174E-08	5.2630E-07	-8.0491E-07
-9.7460E-09	-8.3564E-09	-1.7724E-07	-9.4163E-07
-1.1595E-09	-5.1045E-08	-2.7084E-07	-5.4620E-08
1.8720E-09	-2.7035E-08	7.2940E-09	-2.2244E-07
-4.1812E-08	-1.2046E-08	-2.4636E-07	-2.5855E-08
-3.0337E-08	2.2957E-09	-2.1182E-07	3.7495E-07
-4.2540E-08	-1.1710E-08	5.8223E-07	5.4593E-07
-2.4776E-08	-1.3169E-08	4.7040E-07	-5.8434E-07
6.0720E-10	2.5064E-08	-6.2332E-07	-2.8383E-08
-1.2863E-08	-2.1465E-08	1.1492E-08	6.9341E-07
-2.6270E-08	1.1080E-08	2.0009E-07	3.4580E-07
-9.4771E-09	-2.5357E-08	2.1517E-07	6.9627E-07
4.6782E-09	3.0758E-08	8.7480E-07	3.7741E-07
4.1871E-08	1.8949E-08	3.5504E-07	-1.6136E-07
-1.3207E-08	-1.2766E-08	2.6248E-07	3.1654E-07
1.9724E-08	4.9832E-09	3.5779E-07	-3.0755E-08
-9.6939E-09	-7.5744E-09	-1.9428E-07	4.2696E-07
3.7842E-08	-6.3167E-09	5.7261E-07	9.3794E-07
-1.6056E-08	2.5584E-08	9.2662E-07	4.6262E-07
-7.1268E-09	-1.6139E-08	1.2502E-06	1.4884E-07
-2.4756E-08	-6.0385E-08	6.6616E-07	-8.5574E-07
8.7802E-09	4.6803E-09	-2.8271E-07	1.8002E-07
-5.3930E-10	-3.1613E-08	9.5424E-07	4.1469E-07
-7.6535E-08	-2.1317E-08	5.2514E-07	-5.0804E-07
-1.2620E-08	7.0155E-09	2.1152E-07	7.9882E-09
-2.5699E-08	2.0248E-08	4.0351E-07	-1.2732E-07
1.9440E-08	7.7045E-09	2.3889E-07	-9.9334E-08
1.1344E-08	3.7431E-08	1.0170E-07	-2.4274E-07
7.2392E-08	3.0513E-08	-3.7745E-07	3.0558E-07
6.7885E-08	1.0185E-08	4.3997E-07	8.7514E-07
5.8702E-08	-1.4381E-08	9.0322E-07	1.8530E-07
5.0244E-08	-4.2094E-08	4.6409E-07	-2.2038E-07
1.9621E-08	-3.1710E-08	1.7692E-07	4.0344E-07
-2.0227E-08	1.6469E-08	1.2963E-06	6.9770E-08
2.7267E-08	-1.9143E-08	7.1014E-08	-8.3575E-07
-9.5461E-09	-5.1512E-08	4.9025E-07	3.2788E-07
-2.8885E-09	6.7673E-09	8.4052E-08	-1.1098E-06
-8.8491E-09	-4.8872E-08	-4.3752E-07	8.0307E-07
-5.9112E-09	1.4910E-08	9.1055E-07	-7.4986E-07
1.7941E-08	-1.4544E-08	-1.3385E-06	-5.6806E-08
4.6556E-08	-2.5931E-08	1.2060E-07	7.5071E-07
3.2254E-09	-5.0844E-08	-5.6626E-07	8.1183E-07
-1.3284E-08	-3.2025E-08	1.0846E-06	1.3742E-06
-4.4006E-08	-2.1754E-08	1.0155E-06	8.5877E-08
-2.1778E-08	-1.3582E-08	9.3786E-07	-2.4772E-07
-4.8542E-08	-7.1325E-09	8.8254E-08	-2.1995E-07
-3.5997E-08	-3.7588E-08	7.0150E-07	-4.1246E-07
-3.9985E-08	1.0051E-09	-1.1821E-06	-3.9535E-07
-7.7649E-08	3.7096E-08	3.1332E-07	1.4778E-06
4.7438E-09	1.7617E-08	6.1415E-07	-2.7984E-07
-2.4226E-09	2.2915E-08	-1.2327E-07	5.1125E-08
6.4234E-09	1.7640E-08	-8.2087E-07	5.9434E-07
-6.2164E-08	-7.0244E-09	8.4399E-07	1.8923E-06
-1.4174E-08	2.0369E-08	1.2323E-06	-1.3187E-07
1.3455E-08	-4.2308E-08	5.0480E-07	1.5026E-07
1.9981E-08	3.7898E-08	1.3987E-08	-4.8725E-08
2.2721E-09	3.4913E-08	6.2908E-07	9.8975E-07
-2.4125E-08	2.0022E-08	5.9177E-07	-3.6577E-07
1.2614E-08	2.9874E-08	3.1760E-07	5.7003E-07
2.4749E-08	1.5252E-08	-6.0984E-08	-4.4736E-07
1.4280E-08	-2.5157E-08	-4.1957E-07	1.8653E-06
2.0451E-08	2.9176E-08	1.6126E-06	9.8885E-07
-4.1959E-08	-4.8240E-09	1.6209E-06	6.6311E-07
