jMRUI Data Textfile

Filename: Export_to_jmrui.txt

PointsInDataset: 2048
DatasetsInFile: 1
SamplingInterval: 0.250000
ZeroOrderPhase: 0E0
BeginTime: 0E0
TransmitterFrequency: 1.2326E8
MagneticField: 2.8936E0
TypeOfNucleus:  
NameOfPatient:  
DateOfExperiment:  
Spectrometer:  
AdditionalInfo: 
SignalNames:  


Signal and FFT
sig(real)	sig(imag)	fft(real)	fft(imag)
Signal 1 out of 1 in file
3.1333E-06	1.0525E-06	-3.7370E-06	2.8237E-07
5.3898E-06	-3.8164E-07	-4.0671E-06	5.1279E-07
3.0886E-06	-2.1852E-06	-3.8960E-06	1.7605E-06
1.6367E-06	-2.9267E-06	-2.5790E-06	1.7176E-06
-1.0655E-06	-2.8458E-06	-3.0910E-06	1.1388E-06
-2.3626E-06	-1.8801E-06	-2.8937E-06	2.1693E-06
-3.2701E-06	-5.0405E-07	-2.0867E-06	1.8263E-06
-2.6135E-06	8.5958E-07	-2.1088E-06	1.6893E-06
-1.6881E-06	1.5305E-06	-1.9620E-06	1.5398E-06
-2.3067E-07	1.5238E-06	-1.9019E-06	1.6203E-06
4.8901E-07	9.2527E-07	-1.6246E-06	1.2175E-06
8.6004E-07	3.0031E-07	-2.2016E-06	1.1666E-06
4.8704E-07	-3.5896E-07	-1.6262E-06	1.5026E-06
5.3702E-08	-6.5957E-07	-2.0921E-06	2.5020E-07
-6.0454E-07	-6.2204E-07	-3.4447E-06	1.7220E-06
-8.7003E-07	-4.0540E-07	-1.5804E-06	2.1987E-06
-1.1455E-06	-1.8055E-07	-2.3977E-06	8.6422E-07
-1.0023E-06	6.9758E-08	-2.9828E-06	2.2384E-06
-1.0265E-06	1.6108E-07	-2.2192E-06	2.5635E-06
-9.3622E-07	2.6576E-07	-1.9227E-06	2.8749E-06
-1.0573E-06	3.9290E-07	-9.1685E-07	2.8968E-06
-1.0616E-06	5.4650E-07	-5.4238E-07	1.8400E-06
-1.0207E-06	7.8524E-07	-1.0731E-06	1.5371E-06
-7.3147E-07	9.1223E-07	-1.2299E-06	1.2736E-06
-4.2894E-07	9.7732E-07	-1.7870E-06	1.6628E-06
-2.0259E-09	8.1746E-07	-1.4365E-06	1.5124E-06
1.5936E-07	4.8649E-07	-2.4160E-06	2.3131E-06
2.3152E-07	1.8966E-07	-1.9458E-07	2.7672E-06
-2.6232E-08	-3.3345E-08	-1.4322E-06	7.3753E-07
-2.6801E-07	2.4029E-08	-1.4798E-06	2.7322E-06
-5.8103E-07	1.7701E-07	-9.7611E-07	1.1551E-06
-6.9018E-07	4.5412E-07	-2.0459E-06	3.0048E-06
-6.8465E-07	7.6591E-07	6.0741E-07	2.2010E-06
-3.0739E-07	9.1946E-07	-1.3360E-06	8.8235E-07
-7.5056E-08	9.4544E-07	-7.3806E-07	2.2709E-06
2.8848E-07	7.7470E-07	-8.4346E-07	8.5993E-07
4.6911E-07	4.9801E-07	-1.6830E-06	2.1559E-06
5.3589E-07	4.4106E-07	-1.2172E-07	1.9481E-06
4.7544E-07	2.1564E-07	-8.6357E-07	8.2658E-07
4.6646E-07	1.4271E-07	-1.5032E-06	1.4144E-06
4.1441E-07	1.3918E-07	-1.1305E-06	1.9101E-06
4.6851E-07	4.9996E-09	-7.1151E-07	1.3350E-06
4.1948E-07	-1.1343E-07	-1.5437E-06	1.2752E-06
4.4276E-07	-2.9995E-07	-1.2093E-06	1.9022E-06
2.6517E-07	-4.3833E-07	-9.0124E-07	1.5620E-06
1.0657E-07	-4.0918E-07	-1.0452E-06	9.6738E-07
-1.5589E-07	-3.2172E-07	-2.3397E-06	1.1274E-06
-1.6854E-07	-1.0284E-07	-2.1818E-06	2.6782E-06
-1.1247E-07	1.1183E-07	-9.0477E-07	2.9692E-06
1.0894E-07	2.2911E-07	-1.7335E-07	1.8000E-06
2.6633E-07	1.9774E-07	-1.4187E-06	1.4473E-06
3.8599E-07	4.3372E-08	-9.5102E-07	2.1699E-06
4.0082E-07	-1.9329E-07	-1.3095E-06	1.7211E-06
2.5461E-07	-3.1105E-07	-7.4301E-07	2.4967E-06
2.1788E-08	-3.8713E-07	-7.7087E-07	1.3162E-06
-2.3320E-07	-2.7511E-07	-1.2631E-06	2.3063E-06
-3.2193E-07	-8.6388E-08	-2.0893E-07	1.6956E-06
-2.2751E-07	1.6133E-07	-1.0660E-06	1.0747E-06
-1.3512E-08	2.8997E-07	-1.6295E-06	1.3680E-06
2.2670E-07	2.9253E-07	-1.7799E-06	2.1639E-06
4.1751E-07	1.7323E-07	-1.0269E-06	2.1801E-06
5.1920E-07	-6.2374E-08	-1.4930E-06	1.6933E-06
3.9203E-07	-1.9178E-07	-1.8405E-06	2.6328E-06
1.7989E-07	-2.3921E-07	-7.5375E-07	2.8353E-06
5.5732E-08	-1.3377E-07	-9.0158E-07	2.1267E-06
-7.8053E-08	-6.0216E-09	-1.0084E-06	2.4154E-06
-5.3326E-08	1.3117E-07	-1.2398E-06	2.3796E-06
5.3804E-08	2.7275E-07	-7.7047E-07	3.3776E-06
1.5362E-07	1.9745E-07	3.8960E-07	2.4086E-06
3.1666E-07	1.0766E-07	-3.9710E-07	1.8266E-06
2.4990E-07	-6.2533E-08	-3.9677E-07	1.8472E-06
2.3404E-07	-1.3623E-07	-1.0746E-06	1.9317E-06
9.4673E-08	-1.4293E-07	-3.8957E-07	2.7401E-06
1.6083E-08	-4.1823E-08	4.4627E-08	1.7174E-06
1.1631E-08	8.8398E-08	-5.8937E-07	1.5882E-06
8.2714E-08	1.7023E-07	-9.3411E-07	1.6815E-06
1.6568E-07	2.3078E-07	-5.6217E-07	2.3025E-06
3.0250E-07	1.7195E-07	-5.4947E-07	1.0253E-06
2.6494E-07	4.5892E-08	-1.9264E-06	2.2748E-06
2.5567E-07	-4.2075E-08	-4.4091E-07	2.4475E-06
1.8757E-07	-8.2583E-08	-1.1503E-06	2.5119E-06
4.8728E-08	-6.2434E-08	4.8820E-07	2.3211E-06
2.5850E-08	7.7036E-08	-1.1763E-06	1.0624E-06
1.2880E-07	1.2630E-07	-9.2040E-07	2.5728E-06
2.2066E-07	1.7485E-07	-9.0037E-07	1.9812E-06
2.9982E-07	1.3706E-07	-5.3834E-07	2.5527E-06
4.0172E-07	5.0407E-09	-6.6602E-07	1.9827E-06
3.8675E-07	-1.3257E-07	-1.5356E-07	2.1029E-06
2.5263E-07	-2.3742E-07	-1.5343E-06	1.0405E-06
1.5172E-07	-2.6522E-07	-1.6824E-06	3.5999E-06
-2.2653E-08	-1.8352E-07	4.5448E-07	2.8493E-06
-2.7344E-08	-7.5631E-08	2.5159E-10	1.5190E-06
-3.9949E-08	1.1421E-07	-1.3540E-06	1.4640E-06
5.1316E-08	2.3389E-07	-1.0746E-06	2.7830E-06
1.9559E-07	1.5700E-07	-8.3432E-07	1.9955E-06
2.7776E-07	9.5645E-08	-1.5770E-06	2.9370E-06
3.0871E-07	-7.6165E-09	-4.4299E-07	3.7750E-06
3.0255E-07	-1.4249E-07	1.0588E-06	2.7359E-06
1.8634E-07	-2.1853E-07	-4.4706E-07	1.1177E-06
6.1042E-08	-2.7455E-07	-9.6703E-07	2.8007E-06
-4.8667E-08	-2.2004E-07	-2.2211E-07	2.2572E-06
-5.9720E-08	-2.0052E-07	-7.9071E-07	2.4557E-06
-1.1749E-07	-1.7348E-07	-8.2664E-07	3.0157E-06
-1.0042E-07	-1.1007E-07	4.9083E-07	3.5502E-06
-1.2825E-07	-1.2466E-07	6.6417E-07	2.0876E-06
-1.4834E-07	-1.9583E-08	7.0629E-07	2.0235E-06
-1.7569E-07	-4.1011E-08	-8.3535E-07	7.4347E-07
-1.3721E-07	6.2410E-09	-9.1431E-07	3.8528E-06
-1.4439E-07	6.0730E-08	1.4370E-06	1.7203E-06
-4.7652E-08	8.7542E-08	-8.3458E-07	1.7551E-06
3.2069E-08	4.4132E-08	3.7076E-07	2.1830E-06
3.7289E-08	-2.2642E-08	-1.7374E-07	1.5371E-06
6.7761E-08	-1.0475E-07	-6.6940E-07	1.3268E-06
1.1765E-08	-1.5623E-07	-1.2949E-06	2.8010E-06
-8.5093E-08	-2.0959E-07	4.6434E-07	2.5274E-06
-1.1026E-07	-1.7221E-07	-3.3117E-07	2.0110E-06
-1.8206E-07	-1.3092E-07	1.6015E-07	1.9143E-06
-1.9693E-07	-2.0513E-08	-7.0255E-07	1.9346E-06
-1.8305E-07	6.3735E-09	4.2541E-10	2.1107E-06
-5.6322E-08	-1.0472E-08	-7.8324E-07	2.1732E-06
1.2951E-08	2.0348E-08	8.8211E-07	2.6268E-06
5.5086E-08	-6.3696E-08	2.7354E-07	2.1412E-08
4.7653E-08	-1.4871E-07	-2.4057E-06	1.0586E-06
-4.5303E-09	-1.8453E-07	-1.4405E-06	3.4055E-06
-9.3035E-08	-1.7586E-07	-1.0321E-07	2.1328E-06
-1.1641E-07	-2.0415E-07	-1.7524E-06	2.6152E-06
-2.2525E-07	-7.7682E-08	1.2523E-07	3.7925E-06
-1.4034E-07	-3.5770E-08	2.8982E-07	2.2453E-06
-6.5190E-08	-2.7634E-08	1.9565E-07	2.4974E-06
-7.7829E-08	-5.2446E-09	1.8616E-07	1.7609E-06
-5.7506E-08	-5.8987E-08	-2.5396E-07	1.7256E-06
-1.3627E-09	-1.3261E-07	-9.2544E-07	1.7653E-06
-9.2860E-08	-1.1564E-07	-7.7910E-07	2.8538E-06
-6.6943E-08	-7.5954E-08	1.5974E-07	2.7415E-06
-6.2667E-08	-7.2295E-08	7.0069E-07	1.7292E-06
-3.4349E-08	-5.8740E-08	-1.0551E-06	7.4561E-07
-1.6088E-08	-9.6348E-08	-1.2492E-06	2.8574E-06
7.5966E-08	-6.3586E-08	-4.1475E-07	1.5258E-06
-4.3596E-09	-1.1354E-07	-2.3485E-06	3.0163E-06
-1.6271E-09	-1.1253E-07	5.1111E-07	3.8725E-06
-2.7244E-08	-2.0134E-07	-3.4124E-07	1.5172E-06
-1.0561E-07	-1.7534E-07	-1.5147E-06	3.3351E-06
-1.6783E-07	-1.7094E-07	4.2865E-07	4.0327E-06
-1.4376E-07	-1.4621E-07	1.0324E-06	2.1726E-06
-1.6237E-07	-6.2142E-08	-4.7270E-07	2.3013E-06
-1.6275E-07	-3.3006E-08	6.8071E-07	2.7400E-06
-8.0484E-08	-2.3761E-08	-7.7006E-08	1.5152E-06
-5.3523E-08	-8.4847E-09	-4.9276E-07	2.4070E-06
-3.3083E-08	-3.9456E-08	-3.8320E-07	2.5598E-06
-3.0076E-08	-9.8047E-08	4.6775E-07	2.6317E-06
-9.8339E-08	-1.6497E-07	-3.9437E-07	1.3869E-06
-7.2281E-08	-1.1880E-07	-1.0364E-06	2.9344E-06
-1.7071E-07	-1.1031E-07	-4.6700E-08	3.0587E-06
-2.2320E-07	-1.3332E-08	5.0255E-07	2.9077E-06
-1.4476E-07	-2.8216E-08	3.1409E-07	1.9169E-06
-1.7121E-07	4.2821E-08	-1.7677E-07	2.4679E-06
-1.3154E-07	1.3348E-08	8.4050E-08	2.3801E-06
-7.3314E-08	1.2368E-08	4.7463E-07	2.5529E-06
-8.4890E-08	4.1871E-08	3.0524E-07	1.4411E-06
-5.1292E-08	-3.6300E-08	-2.4278E-07	2.0646E-06
-6.2644E-08	-5.8057E-08	-2.9667E-07	1.2061E-06
-9.9886E-08	-5.1583E-08	-1.5314E-06	2.5300E-06
-1.0305E-07	-6.2067E-08	-6.3419E-08	2.6499E-06
-1.0935E-07	-2.1747E-08	-1.1728E-06	2.3974E-06
-1.6027E-07	-5.6832E-08	-2.9970E-07	3.9122E-06
-1.6831E-07	-1.0635E-09	1.2211E-06	2.7701E-06
-1.9886E-07	4.1622E-09	-7.9495E-09	1.2439E-06
-1.4845E-07	5.1377E-08	-1.2741E-06	2.7862E-06
-1.6951E-07	2.9217E-08	2.1471E-07	3.5814E-06
-1.7865E-07	1.1064E-07	8.4138E-07	2.7781E-06
-1.3337E-07	8.8034E-08	6.9845E-07	2.1705E-06
-9.4333E-08	8.9384E-08	7.1971E-07	2.0982E-06
-7.2181E-08	3.3179E-08	5.2177E-07	9.0755E-07
-8.2664E-08	3.0221E-08	-1.3877E-06	1.3364E-06
-6.0372E-08	1.3495E-08	-9.0598E-07	3.1851E-06
-1.2975E-07	-7.9963E-09	8.0111E-07	2.7143E-06
-1.2860E-07	-2.0318E-08	-1.2209E-07	1.0309E-06
-5.8245E-08	1.8003E-09	-1.0891E-06	2.6433E-06
-1.4149E-07	1.3738E-09	4.3910E-07	1.9790E-06
-1.5584E-07	2.6425E-08	-1.5338E-06	1.5637E-06
-1.6365E-07	-4.1753E-09	-8.4932E-07	3.3621E-06
-1.0743E-07	3.0534E-08	-2.3426E-07	2.5181E-06
-1.2620E-07	4.3243E-08	-5.4660E-07	2.7131E-06
-1.5505E-07	1.9360E-08	-5.0888E-07	2.5284E-06
-1.3782E-07	1.4319E-08	-8.7340E-07	3.0400E-06
-1.5346E-07	2.4688E-08	-2.7983E-07	3.3282E-06
-1.4926E-07	-7.1691E-09	-1.7538E-07	3.4039E-06
-1.5394E-07	-1.7863E-08	7.5915E-07	3.2526E-06
-1.0870E-07	5.7450E-08	1.3205E-07	2.2140E-06
-1.3445E-07	1.8439E-08	-1.7724E-08	3.2683E-06
-1.5832E-07	-4.4820E-09	7.9097E-07	2.5346E-06
-1.8307E-07	9.0802E-08	3.1472E-07	2.3428E-06
-1.7447E-07	7.6996E-08	2.0895E-07	1.6272E-06
-1.5781E-07	4.5002E-08	-1.3899E-06	2.2651E-06
-1.8370E-07	7.1803E-08	-4.5029E-07	3.7928E-06
-2.1112E-07	7.6432E-08	5.1178E-07	3.1681E-06
-1.6153E-07	9.0602E-08	2.3599E-07	2.7219E-06
-1.2652E-07	8.4858E-08	2.1440E-07	3.0544E-06
-1.4073E-07	1.0521E-07	6.5668E-07	2.7906E-06
-1.4040E-07	6.0288E-08	4.9488E-07	2.5470E-06
-1.2859E-07	9.0012E-08	5.3703E-07	2.2921E-06
-1.2979E-07	6.1169E-08	-5.9056E-08	2.1825E-06
-1.4399E-07	8.6144E-08	8.1356E-09	2.9686E-06
-1.4184E-07	9.7685E-08	1.0345E-06	2.4080E-06
