jMRUI Data Textfile

Filename: Export_to_jmrui.txt

PointsInDataset: 2048
DatasetsInFile: 1
SamplingInterval: 0.250000
ZeroOrderPhase: 0E0
BeginTime: 0E0
TransmitterFrequency: 1.2326E8
MagneticField: 2.8936E0
TypeOfNucleus:  
NameOfPatient:  
DateOfExperiment:  
Spectrometer:  
AdditionalInfo: 
SignalNames:  


Signal and FFT
sig(real)	sig(imag)	fft(real)	fft(imag)
Signal 1 out of 1 in file
2.9354E-06	8.0046E-07	-3.9094E-06	-5.1067E-07
4.2019E-06	-5.4059E-07	-4.1187E-06	1.0665E-06
2.2702E-06	-1.8200E-06	-2.7097E-06	2.7658E-06
1.1771E-06	-2.3457E-06	-1.2261E-06	1.3733E-06
-9.3780E-07	-2.2288E-06	-2.3264E-06	1.7284E-06
-1.8844E-06	-1.3654E-06	-7.0553E-07	1.9733E-06
-2.5878E-06	-3.1303E-07	-1.0213E-06	9.4454E-07
-2.0435E-06	6.8364E-07	-9.1265E-07	5.7889E-07
-1.3508E-06	1.1447E-06	-2.5336E-06	5.3145E-07
-2.4843E-07	1.1673E-06	-1.7877E-06	2.4842E-06
3.0935E-07	7.2339E-07	-3.6819E-07	1.9128E-06
5.4009E-07	1.8051E-07	2.0860E-07	3.6236E-07
2.0101E-07	-2.3243E-07	-2.4116E-06	-5.1045E-07
-1.0201E-07	-4.2338E-07	-1.9040E-06	2.3602E-06
-6.2973E-07	-3.5226E-07	-6.6011E-07	2.5389E-07
-7.6132E-07	-1.1013E-07	-2.9293E-06	1.0847E-06
-8.7222E-07	2.5852E-08	-1.4002E-06	2.2154E-06
-7.2743E-07	1.6145E-07	-1.5675E-06	1.2227E-06
-7.3772E-07	1.8721E-07	-1.8524E-06	2.1855E-06
-6.5697E-07	2.2004E-07	-8.8892E-07	1.6657E-06
-7.9653E-07	2.3768E-07	-2.4323E-06	1.7223E-06
-8.3801E-07	4.3804E-07	-1.0823E-06	3.4775E-06
-8.7004E-07	5.6829E-07	-6.0378E-07	2.2690E-06
-6.5764E-07	7.3784E-07	9.8364E-08	3.0310E-06
-4.4633E-07	8.0593E-07	2.9932E-07	9.1047E-07
-3.1122E-08	6.7017E-07	-7.7449E-07	1.9758E-06
1.3482E-07	4.3907E-07	-2.5486E-07	1.0482E-06
2.0980E-07	1.4916E-07	-1.0763E-06	2.5750E-06
5.3464E-08	4.1162E-08	9.5998E-07	1.2434E-06
-1.3864E-07	5.6470E-08	-1.3161E-06	1.2067E-06
-4.0167E-07	1.4419E-07	3.1324E-07	1.7209E-06
-4.9523E-07	3.1832E-07	-1.1043E-06	1.0943E-06
-4.5272E-07	6.2227E-07	2.7211E-07	2.0037E-06
-2.0978E-07	7.2911E-07	-5.9242E-07	4.9428E-07
-1.4513E-08	7.4644E-07	-6.4444E-07	1.6371E-06
2.9448E-07	6.3967E-07	-6.5035E-07	1.1428E-06
4.3002E-07	3.9231E-07	-2.4933E-07	1.2181E-06
4.7516E-07	3.4857E-07	-1.8998E-06	5.2311E-07
4.2829E-07	1.9361E-07	-1.2104E-06	3.3936E-06
4.2257E-07	1.2039E-07	5.3956E-07	1.3518E-06
4.0783E-07	3.4408E-08	-8.6068E-07	1.7499E-06
4.0244E-07	2.6400E-08	2.0094E-07	1.1371E-06
4.1872E-07	-1.1813E-07	-1.4817E-06	1.1839E-06
4.0617E-07	-1.7169E-07	-5.7295E-07	2.0660E-06
3.1921E-07	-2.6950E-07	-8.8101E-07	1.8879E-06
2.3971E-07	-3.3212E-07	1.9501E-07	2.0687E-06
5.6697E-08	-2.2902E-07	-6.8890E-07	1.0019E-06
2.5726E-08	-1.5139E-07	-5.6825E-07	2.1035E-06
2.2439E-08	1.1628E-08	-5.5885E-07	1.3922E-06
1.2760E-07	1.3354E-07	-4.9233E-07	2.1440E-06
2.4657E-07	7.1574E-08	-5.1293E-07	1.3663E-06
3.3168E-07	2.8058E-08	-5.7043E-07	2.4039E-06
3.0298E-07	-1.7098E-07	-9.9782E-08	1.3386E-06
2.1004E-07	-2.5634E-07	-7.9252E-07	2.2668E-06
4.2741E-08	-3.0376E-07	1.3394E-08	1.5092E-06
-1.0057E-07	-1.5321E-07	-1.0185E-06	2.4268E-06
-1.9347E-07	-2.7207E-08	6.8073E-07	2.1561E-06
-5.3064E-08	1.4341E-07	-2.3810E-07	1.7040E-06
8.5864E-08	1.8211E-07	4.4379E-07	1.4431E-06
3.0603E-07	1.3634E-07	-9.6667E-07	1.4729E-06
4.2154E-07	9.2053E-09	1.0293E-07	2.3786E-06
4.6859E-07	-1.1093E-07	3.1187E-07	1.7896E-06
3.1787E-07	-2.2990E-07	4.1077E-07	6.9254E-07
1.8424E-07	-2.9643E-07	-1.6530E-06	1.8369E-06
3.5256E-08	-2.1237E-07	1.4419E-06	2.5035E-06
-3.9130E-08	-2.4173E-08	-3.8259E-07	-3.0576E-07
-4.2872E-08	9.6535E-08	-1.0560E-06	1.5469E-06
2.8504E-09	2.0159E-07	-1.7348E-06	1.5993E-06
1.9291E-07	1.9273E-07	5.4593E-08	3.5820E-06
2.4681E-07	1.1927E-07	3.6561E-07	7.5230E-07
2.7039E-07	-1.0391E-08	-9.4401E-07	2.2733E-06
2.5434E-07	-3.6661E-08	7.5983E-08	1.7196E-06
1.0577E-07	-5.5323E-08	-3.7296E-07	1.8745E-06
5.9398E-08	-3.2056E-08	-7.3934E-07	1.5527E-06
9.4300E-08	8.8556E-08	-3.6956E-07	2.9680E-06
1.3898E-07	1.1516E-07	2.5497E-07	1.4444E-06
2.1931E-07	9.2283E-08	-6.4122E-07	2.5824E-06
2.6046E-07	1.0937E-08	5.6297E-07	1.6886E-06
2.6385E-07	-7.5602E-08	-8.4944E-07	1.9682E-06
2.6504E-07	-1.2116E-07	-9.2072E-08	2.5593E-06
1.4229E-07	-8.3429E-08	4.7434E-07	2.7817E-06
7.8089E-08	-4.1095E-08	9.1581E-07	1.1061E-06
3.1082E-08	5.5527E-08	-9.7756E-07	1.9447E-06
1.3235E-07	9.5134E-08	5.8502E-07	2.5791E-06
2.0611E-07	1.7392E-07	5.7235E-07	1.9551E-06
3.5094E-07	8.9669E-08	7.3011E-07	8.6987E-07
4.3061E-07	-2.9001E-08	-1.2654E-06	1.5366E-06
3.5595E-07	-1.8178E-07	2.5800E-07	2.4317E-06
2.1949E-07	-2.1656E-07	-5.9061E-07	1.9178E-06
1.2844E-07	-2.4740E-07	6.3410E-07	2.7577E-06
1.1582E-08	-1.8351E-07	-1.4956E-08	1.5072E-06
-8.5975E-08	-4.7682E-08	3.4289E-07	2.8942E-06
-6.3968E-08	8.8158E-08	1.0203E-06	1.5375E-06
3.1243E-08	1.4427E-07	1.2908E-07	1.6336E-06
1.7340E-07	1.2138E-07	2.0429E-07	1.9525E-06
2.6322E-07	5.0124E-08	7.3771E-07	2.0034E-06
2.6945E-07	-3.1434E-08	5.5286E-07	1.3337E-06
2.4975E-07	-9.6891E-08	5.5369E-07	1.4337E-06
1.4154E-07	-2.2320E-07	-1.2013E-07	7.5186E-07
1.0446E-07	-2.3081E-07	-5.7231E-07	1.9885E-06
-1.9505E-08	-2.4471E-07	1.7476E-07	1.7599E-06
-4.4674E-08	-1.9800E-07	-2.0153E-07	2.0901E-06
-1.2671E-07	-1.4444E-07	8.8498E-07	2.0209E-06
-1.0261E-07	-1.2623E-07	3.1822E-07	5.9695E-07
-1.2493E-07	-9.7181E-08	-1.3181E-06	1.6035E-06
-1.1099E-07	-1.3196E-07	1.3011E-07	3.0960E-06
-1.3925E-07	-6.2187E-08	8.6126E-07	1.7207E-06
-1.8174E-07	-1.1296E-08	5.7347E-07	1.7344E-06
-1.7799E-07	-4.8226E-08	4.0779E-07	5.3623E-07
-8.5279E-08	2.7980E-08	-1.4461E-06	1.6228E-06
-5.7179E-08	3.8768E-08	2.2524E-07	3.0374E-06
-1.6280E-08	-3.5892E-08	9.9437E-07	1.5958E-06
3.2291E-08	-1.0061E-07	9.6294E-08	1.0278E-06
3.4368E-08	-1.1927E-07	-5.2401E-07	1.4153E-06
-1.2394E-07	-1.8874E-07	-8.8291E-07	2.2464E-06
-9.5963E-08	-1.9075E-07	7.2346E-07	3.4723E-06
-2.4381E-07	-1.3827E-07	2.0070E-06	7.3419E-07
-1.8753E-07	-6.0187E-08	-9.0798E-07	6.4399E-07
-1.9313E-07	6.6129E-08	3.6872E-07	1.9848E-06
-7.3271E-08	3.5929E-08	-4.2462E-07	6.2262E-07
-6.1253E-08	-8.8068E-09	-5.6127E-07	2.1808E-06
3.7283E-08	-9.3850E-09	1.2940E-07	1.0498E-06
4.1340E-08	-9.3719E-08	-1.4121E-06	1.3781E-06
-3.2507E-08	-1.2664E-07	-9.6653E-07	2.6828E-06
-6.6975E-08	-1.6932E-07	-1.8597E-08	2.5487E-06
-1.1187E-07	-1.4089E-07	-2.1734E-07	1.9252E-06
-2.0062E-07	-1.3470E-07	-5.1607E-07	2.5260E-06
-1.7915E-07	-6.8957E-08	3.6896E-07	2.4794E-06
-1.2284E-07	-5.4456E-08	-1.6427E-07	1.5708E-06
-7.9226E-08	-4.9271E-08	-8.6425E-07	2.7039E-06
-1.2914E-07	-2.6359E-08	4.5576E-07	3.0266E-06
-7.7770E-08	-7.4016E-08	6.8150E-07	2.3617E-06
-8.8267E-08	-1.1221E-07	9.0648E-07	1.4555E-06
-1.4078E-07	-6.8424E-08	-9.1779E-07	1.2030E-06
-9.9804E-08	-5.9491E-08	-4.1383E-07	2.8255E-06
-7.2374E-08	-4.5793E-08	-3.3840E-07	2.1515E-06
-9.1346E-08	-5.1781E-08	5.0591E-08	3.3009E-06
-5.9473E-08	-5.0167E-08	6.6221E-07	1.8334E-06
-4.3819E-08	-1.4046E-07	-4.7352E-07	2.6702E-06
-7.5099E-08	-1.3427E-07	7.8848E-07	2.4443E-06
-9.3763E-08	-1.6434E-07	-2.5955E-07	2.1007E-06
-1.3210E-07	-1.2522E-07	2.0214E-07	2.8096E-06
-1.8180E-07	-9.8325E-08	2.4074E-07	2.5935E-06
-2.1543E-07	-5.7339E-08	6.0557E-07	2.6753E-06
-2.6377E-07	-2.8114E-08	3.0115E-07	2.4374E-06
-1.7387E-07	-1.6121E-09	8.6938E-07	3.0816E-06
-1.7916E-07	-3.1423E-10	1.4197E-06	1.8582E-06
-1.4343E-07	-2.3421E-08	3.4895E-07	1.8149E-06
-5.6604E-08	-7.0025E-08	7.4952E-07	1.9230E-06
-1.0172E-07	-7.3089E-08	-2.4811E-07	1.7055E-06
-1.3847E-07	-1.1896E-07	1.4084E-07	3.0711E-06
-1.9286E-07	-8.4869E-08	1.0135E-06	2.6833E-06
-2.4938E-07	-5.4887E-08	1.6403E-06	2.1836E-06
-2.5983E-07	-3.9605E-08	5.5760E-07	7.3821E-07
-2.4633E-07	-5.6065E-08	-1.3710E-07	2.7487E-06
-2.3904E-07	5.3859E-08	1.9043E-06	1.6591E-06
-2.1751E-07	6.7397E-09	-1.4320E-07	4.8999E-07
-1.7038E-07	-1.9544E-08	-7.0016E-07	2.0094E-06
-2.0887E-07	7.5244E-10	-2.7175E-08	2.6659E-06
-1.7741E-07	3.4858E-08	6.3729E-07	2.1721E-06
-1.5437E-07	9.2408E-10	8.6774E-08	2.0492E-06
-1.8746E-07	-2.1573E-09	2.9824E-07	2.3012E-06
-2.0973E-07	-3.8786E-08	3.3632E-07	2.5881E-06
-2.0190E-07	-3.4895E-08	1.2756E-06	2.1238E-06
-2.5133E-07	-2.2757E-08	2.2469E-07	1.3712E-06
-2.1808E-07	-4.0222E-09	3.5532E-07	2.3780E-06
-2.6406E-07	1.6594E-08	8.3871E-07	1.6245E-06
-2.5809E-07	4.4321E-08	1.9990E-07	1.4090E-06
-2.6696E-07	9.8650E-08	-1.2733E-07	1.5086E-06
-2.3952E-07	1.1077E-07	-5.1297E-07	1.8209E-06
-2.1844E-07	5.9297E-08	-5.6110E-07	2.3696E-06
-2.3206E-07	1.2689E-07	-2.2759E-07	2.8379E-06
-1.7687E-07	7.2067E-08	5.4841E-07	2.8961E-06
-1.9883E-07	6.4253E-08	8.2261E-07	1.6978E-06
-1.5522E-07	4.6617E-08	-1.1378E-06	1.5670E-06
-1.6935E-07	4.3054E-08	-7.7191E-07	4.3943E-06
-1.7122E-07	2.2876E-08	2.3170E-06	3.2151E-06
-2.0152E-07	-2.6802E-08	3.6787E-07	1.0597E-06
-2.4662E-07	-3.7033E-09	-9.8541E-08	2.8658E-06
-2.1233E-07	4.5435E-08	2.5459E-07	2.3902E-06
-2.0124E-07	4.0883E-08	5.6256E-07	3.6750E-06
-1.6972E-07	5.9264E-08	2.0759E-06	1.8820E-06
-2.1850E-07	1.1014E-08	5.3800E-08	1.4266E-06
-1.8391E-07	1.9269E-08	2.5097E-07	2.1116E-06
-2.2066E-07	-2.1667E-08	-3.0034E-07	2.3304E-06
-2.0262E-07	-3.4469E-08	1.0766E-07	2.8860E-06
-2.5153E-07	-3.3727E-08	2.8488E-07	3.4374E-06
-2.3548E-07	-2.4755E-08	1.8058E-06	2.9472E-06
-2.6487E-07	1.3381E-08	8.1921E-07	1.8360E-06
-2.8238E-07	1.5472E-08	9.3947E-07	2.5068E-06
-3.0284E-07	1.5566E-08	7.8245E-07	1.8174E-06
-2.7388E-07	2.5068E-08	3.9053E-07	2.3890E-06
-2.8784E-07	1.0135E-08	1.0361E-06	2.3866E-06
-2.8257E-07	5.2055E-08	6.2661E-07	1.4287E-06
-2.7691E-07	6.7836E-08	-4.9520E-07	2.5503E-06
-2.6526E-07	2.6404E-08	9.4579E-07	2.9119E-06
-2.2281E-07	7.3936E-08	1.3734E-07	2.5075E-06
-1.8993E-07	1.0945E-07	1.4916E-06	3.5442E-06
-1.9756E-07	1.1371E-07	1.6485E-06	1.4189E-06
-2.0474E-07	8.3679E-08	1.7747E-07	2.0799E-06
-2.1114E-07	1.0478E-07	9.2170E-07	2.6286E-06
-2.1353E-07	7.1435E-08	1.0457E-06	2.1009E-06
-2.4072E-07	4.0914E-08	7.2162E-07	2.2513E-06
-2.2806E-07	5.1913E-08	1.0722E-06	2.1907E-06
-1.8516E-07	1.2017E-07	7.7901E-07	2.3325E-06
