jMRUI Data Textfile

Filename: Export_to_jmrui.txt

PointsInDataset: 2048
DatasetsInFile: 1
SamplingInterval: 0.250000
ZeroOrderPhase: 0E0
BeginTime: 0E0
TransmitterFrequency: 1.2326E8
MagneticField: 2.8936E0
TypeOfNucleus:  
NameOfPatient:  
DateOfExperiment:  
Spectrometer:  
AdditionalInfo: 
SignalNames:  


Signal and FFT
sig(real)	sig(imag)	fft(real)	fft(imag)
Signal 1 out of 1 in file
2.3189E-06	8.8727E-07	-2.9244E-06	-1.3692E-06
2.9976E-06	-6.3886E-08	-3.3798E-06	7.6146E-07
1.6510E-06	-1.1560E-06	-2.0890E-06	1.3491E-06
9.2284E-07	-1.5309E-06	-2.0530E-06	1.8757E-06
-5.9001E-07	-1.5897E-06	2.3033E-07	1.5879E-06
-1.2480E-06	-1.0896E-06	-1.5241E-06	-6.9188E-07
-1.7475E-06	-3.6170E-07	-2.0081E-06	1.6763E-06
-1.4120E-06	4.0814E-07	-1.2815E-06	7.0759E-07
-9.1692E-07	6.7447E-07	-1.9308E-06	1.9939E-06
-1.6271E-07	6.6722E-07	-7.1487E-07	1.8016E-06
9.4131E-08	3.8992E-07	-5.7431E-07	2.0317E-06
3.3469E-07	1.2667E-08	8.4715E-08	1.0178E-06
8.4261E-08	-2.7726E-07	-6.9050E-07	1.0375E-06
-2.2871E-07	-3.8849E-07	-7.9024E-07	7.9545E-07
-5.8384E-07	-2.4025E-07	-1.0844E-06	2.0548E-06
-6.0068E-07	-2.7592E-08	5.4322E-07	1.3878E-06
-5.7120E-07	7.1230E-08	-2.7971E-07	7.5213E-07
-4.4068E-07	1.5953E-07	-2.6108E-07	3.3102E-07
-4.3473E-07	1.0487E-07	-1.6246E-06	9.6106E-07
-4.0089E-07	1.1540E-07	-4.3726E-07	1.6794E-06
-5.8871E-07	1.0424E-07	-8.7386E-07	1.2805E-06
-6.6318E-07	1.3150E-07	-2.4521E-07	1.7886E-06
-7.4453E-07	2.7948E-07	-4.3353E-07	1.5995E-06
-5.3485E-07	4.9525E-07	8.4882E-07	1.8012E-06
-3.8466E-07	5.8671E-07	2.1113E-07	1.1411E-08
-1.5632E-07	5.0558E-07	-3.5522E-07	9.6643E-07
2.9205E-08	3.9604E-07	-4.7111E-07	-3.7367E-08
1.4285E-07	2.9407E-07	-1.7063E-06	1.5999E-06
3.0074E-08	1.0027E-07	2.5732E-07	1.6899E-06
-1.2694E-07	9.2874E-08	-7.0392E-07	9.9764E-07
-2.8911E-07	1.2302E-07	1.6342E-07	1.7143E-06
-3.2914E-07	2.9563E-07	-2.3752E-07	5.1616E-07
-3.3657E-07	4.9248E-07	-5.2763E-07	1.4737E-06
-1.1784E-07	5.7531E-07	-1.2941E-07	9.5209E-07
3.7061E-08	5.9681E-07	-5.2770E-07	1.2210E-06
2.6982E-07	4.8728E-07	-5.2077E-07	1.2228E-06
3.4568E-07	4.0734E-07	-2.4321E-07	1.9869E-06
4.2497E-07	2.2884E-07	7.4705E-07	1.0338E-06
3.3577E-07	1.4906E-07	-3.0610E-07	3.6612E-07
3.0522E-07	1.1234E-07	-9.0488E-07	7.7852E-07
3.0401E-07	1.3264E-08	-1.2279E-06	1.6323E-06
3.3750E-07	5.9087E-08	-4.5425E-07	2.5220E-06
3.4469E-07	-3.1679E-08	1.0196E-06	2.1176E-06
3.9750E-07	-1.2399E-07	4.5411E-07	3.9984E-07
2.9422E-07	-1.7557E-07	-4.8301E-07	1.7197E-06
2.4062E-07	-2.3484E-07	1.2091E-06	1.2251E-06
1.2687E-07	-2.1837E-07	-1.8835E-08	-3.9025E-08
8.9981E-08	-1.2669E-07	-7.9470E-07	7.7338E-07
8.5720E-08	-8.6022E-08	-4.7601E-07	1.4018E-06
1.3121E-07	1.8050E-08	-3.7939E-07	8.7930E-07
2.2696E-07	2.8844E-08	-1.0229E-06	2.0259E-06
2.9449E-07	-2.6866E-08	8.7459E-07	1.7933E-06
2.9256E-07	-9.2558E-08	-6.0986E-07	8.2850E-07
2.0724E-07	-1.4765E-07	3.2893E-07	2.6609E-06
7.8307E-08	-1.9875E-07	1.5122E-06	6.3409E-07
-2.0453E-08	-1.2608E-07	-1.5072E-07	2.2429E-07
-4.0106E-08	-7.8066E-08	4.6364E-08	8.6651E-07
2.1405E-09	2.3934E-08	-2.8180E-07	-7.0061E-08
1.5210E-07	1.1914E-07	-1.7084E-06	1.0829E-06
2.6897E-07	1.1282E-07	-2.3917E-07	1.9140E-06
3.5034E-07	-2.9822E-08	-6.7210E-07	1.2783E-06
3.8854E-07	-8.6250E-08	2.9559E-07	1.9563E-06
2.5425E-07	-2.1892E-07	-3.4531E-07	2.1196E-07
1.3966E-07	-1.9979E-07	-1.1171E-06	1.9104E-06
-1.3051E-08	-1.5787E-07	-4.8645E-07	1.0982E-06
-1.7817E-08	-7.5153E-08	-1.6962E-06	2.7662E-06
-6.1490E-08	4.5778E-08	8.2788E-07	3.1247E-06
1.0681E-07	1.3240E-07	7.2519E-07	2.0464E-06
1.6295E-07	1.1619E-07	1.3472E-06	1.3124E-06
2.6444E-07	9.1166E-08	-4.0416E-07	7.5376E-07
2.0695E-07	-5.0645E-08	2.1647E-07	2.2552E-06
2.1006E-07	-2.2545E-08	5.3791E-07	1.3015E-06
8.6779E-08	-6.5408E-08	3.6501E-07	1.5424E-06
1.1231E-07	-2.6009E-08	5.8729E-08	1.3800E-06
1.0572E-07	-2.3755E-08	8.2665E-07	2.2676E-06
1.5533E-07	6.5972E-08	1.4657E-06	3.3479E-07
1.4304E-07	4.3402E-08	-7.1026E-07	2.9103E-07
2.1583E-07	3.3527E-08	-6.1376E-07	1.9693E-06
2.3226E-07	-2.2223E-09	5.0079E-07	2.1426E-06
1.5246E-07	-1.8054E-08	8.8509E-07	1.5946E-06
7.8609E-08	-1.0916E-08	9.5235E-07	1.2173E-06
4.5923E-08	1.2554E-08	9.0984E-07	8.7388E-07
4.1659E-08	7.8752E-08	6.0073E-07	1.0957E-07
1.1130E-07	1.3478E-07	-8.0512E-07	8.6857E-07
2.1354E-07	1.3913E-07	9.1808E-07	1.5546E-06
2.9413E-07	9.0513E-08	-2.3362E-07	-1.8082E-07
2.9907E-07	4.2447E-09	-2.9777E-07	1.7252E-06
3.0348E-07	-7.3415E-08	7.5643E-08	2.8818E-07
1.6407E-07	-1.6912E-07	-6.1935E-07	1.6347E-06
8.3782E-08	-1.8651E-07	-6.1481E-08	5.0026E-07
-6.1255E-08	-1.8665E-07	-1.0988E-06	2.3373E-06
-4.8485E-08	-8.1487E-08	1.3478E-06	1.1077E-06
-2.4847E-08	3.6157E-08	-1.2713E-06	6.0177E-07
3.2149E-08	6.3207E-08	-2.2337E-07	2.0252E-06
1.3280E-07	9.9282E-08	-5.8361E-07	1.7620E-06
2.0720E-07	-2.3243E-09	4.3172E-07	2.3409E-06
1.6486E-07	-6.7876E-08	6.6294E-07	1.7737E-06
1.7219E-07	-1.4455E-07	1.2441E-06	6.3507E-07
4.2307E-08	-1.7402E-07	-1.1438E-06	3.2712E-07
-2.0105E-08	-1.7606E-07	-3.8948E-07	2.1647E-06
-1.0964E-07	-1.6266E-07	-4.0766E-07	1.7704E-06
-1.2341E-07	-1.1227E-07	7.7531E-07	2.3702E-06
-1.2701E-07	-1.0460E-07	5.8856E-08	8.2925E-07
-1.2056E-07	-8.7085E-08	1.3738E-08	2.6962E-06
-1.2311E-07	-7.3133E-08	1.6407E-06	1.6103E-06
-1.4521E-07	-2.1875E-08	1.3215E-06	3.3237E-07
-1.5857E-07	-7.0936E-08	-6.0162E-07	-6.6465E-07
-1.6210E-07	-6.8146E-08	-1.6441E-06	1.7303E-06
-1.4679E-07	2.2787E-08	-3.8203E-07	1.9609E-06
-1.0782E-07	3.0230E-08	-2.8209E-07	2.6240E-06
-5.3725E-08	9.0367E-09	1.1570E-06	1.8084E-06
-1.8246E-08	-3.6537E-09	-1.4426E-07	1.1146E-06
-3.9026E-10	-5.1294E-08	1.2241E-07	2.2398E-06
1.5535E-08	-1.1706E-07	9.6374E-07	1.7240E-06
-1.2291E-07	-1.0502E-07	6.3204E-07	9.7643E-07
-1.6189E-07	-1.1278E-07	1.3695E-07	1.1469E-06
-2.2362E-07	-1.0541E-07	1.1481E-07	1.0800E-06
-2.4340E-07	-3.8448E-08	-4.3026E-07	1.4563E-06
-1.9822E-07	-5.6221E-09	3.4736E-07	2.0579E-06
-1.7524E-07	1.8652E-08	6.1673E-07	9.6596E-07
-1.2031E-07	3.0807E-08	-5.4542E-07	1.3282E-06
-1.0523E-07	-2.1191E-08	6.2354E-07	1.9959E-06
-9.4233E-08	-1.2714E-07	2.5499E-07	3.4322E-07
-9.9481E-08	-1.2123E-07	-9.9101E-07	1.3674E-06
-1.7147E-07	-8.7763E-08	-7.1567E-07	1.5798E-06
-2.0152E-07	-1.3220E-07	-1.0540E-06	3.0170E-06
-1.7504E-07	-4.9171E-08	1.1952E-06	2.7992E-06
-2.2224E-07	-1.0867E-08	1.3865E-07	1.7884E-06
-2.1396E-07	-8.2083E-09	1.3206E-06	2.6327E-06
-1.4696E-07	-2.8748E-08	8.0002E-07	3.7158E-07
-1.4975E-07	-4.3673E-09	-8.4528E-07	2.0883E-06
-1.6758E-07	7.4120E-09	7.9795E-07	2.7356E-06
-1.6973E-07	-3.6770E-08	1.3262E-06	2.0324E-06
-1.2733E-07	-1.0583E-08	1.1825E-06	9.9620E-07
-1.8157E-07	-1.4664E-08	6.5377E-09	1.5301E-06
-9.9086E-08	-2.9016E-08	1.3335E-06	2.1827E-06
-6.1513E-08	-3.1271E-08	1.2627E-06	5.1894E-07
-8.4333E-08	-2.6522E-08	1.0914E-07	1.1666E-06
-1.2007E-07	-1.0787E-07	1.1357E-06	1.2058E-06
-1.0714E-07	-1.1989E-07	2.0930E-07	1.7789E-07
-1.0337E-07	-1.3530E-07	-3.3408E-07	1.0944E-06
-1.9568E-07	-1.2235E-07	-4.3374E-07	1.1698E-06
-2.1246E-07	-9.0454E-08	-1.8083E-07	2.1876E-06
-2.4680E-07	-7.9856E-08	5.9698E-07	1.4401E-06
-2.2494E-07	-3.4469E-08	5.0783E-08	1.5961E-06
-2.2769E-07	-2.7807E-08	3.5427E-07	1.1454E-06
-1.5086E-07	1.2151E-08	-6.7843E-07	1.8529E-06
-1.3291E-07	3.0339E-08	8.1979E-07	2.2615E-06
-1.6619E-07	1.1187E-08	3.0000E-07	1.3328E-06
-2.1227E-07	8.3226E-09	4.8741E-07	1.7584E-06
-2.1576E-07	-3.2080E-08	-4.3867E-08	1.5074E-06
-2.7721E-07	-1.7185E-08	7.9784E-07	2.5690E-06
-2.0099E-07	-2.5615E-08	1.4763E-06	9.0279E-07
-2.7996E-07	-1.1750E-08	1.7702E-07	7.0530E-07
-2.6861E-07	3.5372E-09	-1.2892E-07	1.0211E-06
-2.3424E-07	2.0624E-08	-4.8247E-07	1.6439E-06
-2.1100E-07	2.3008E-08	1.4366E-08	2.2716E-06
-2.3485E-07	4.7801E-08	9.5563E-07	2.2668E-06
-2.2438E-07	3.7355E-08	1.2526E-06	9.1095E-07
-1.2235E-07	-9.3960E-09	-2.8255E-07	7.2129E-07
-2.3181E-07	-2.2739E-08	-2.4763E-07	2.0352E-06
-2.5008E-07	-1.1906E-08	6.3872E-07	2.0259E-06
-2.3252E-07	-1.4012E-08	9.5279E-07	1.4970E-06
-2.4931E-07	4.5412E-09	5.8988E-07	9.4701E-07
-2.4190E-07	-3.3334E-08	4.5798E-07	1.2652E-06
-2.6281E-07	2.5939E-08	6.6450E-07	2.2463E-07
-2.7560E-07	7.4835E-08	-1.5083E-06	3.2400E-07
-2.6657E-07	5.1799E-08	-1.0129E-06	2.4906E-06
-2.7234E-07	7.4807E-08	-1.9987E-07	1.7780E-06
-2.1030E-07	7.0728E-08	-7.5525E-07	2.6543E-06
-2.2081E-07	7.8840E-08	9.2596E-07	2.6546E-06
-1.8918E-07	1.1033E-07	6.4083E-08	1.3743E-06
-1.8218E-07	2.0792E-08	-1.7769E-07	3.1691E-06
-2.1442E-07	4.5338E-08	2.1606E-06	2.4259E-06
-2.1305E-07	4.0911E-10	8.5022E-07	4.1002E-07
-2.4943E-07	3.3112E-08	2.8546E-08	1.7413E-06
-2.0488E-07	2.7126E-08	8.6092E-07	1.1978E-06
-2.8358E-07	8.3387E-09	-2.7156E-07	1.0648E-06
-2.2889E-07	3.4056E-08	-4.9313E-08	1.7043E-06
-2.2219E-07	2.0248E-08	-2.5468E-07	1.7403E-06
-2.7181E-07	3.5734E-10	2.5882E-07	2.1198E-06
-2.6433E-07	1.0264E-08	4.2229E-08	1.5677E-06
-2.5641E-07	3.3894E-09	-5.2746E-08	2.1966E-06
-2.8214E-07	1.3229E-09	1.1771E-07	2.0184E-06
-2.3252E-07	4.5397E-09	2.9004E-07	2.6046E-06
-2.3613E-07	7.8250E-10	9.9370E-07	1.9943E-06
-2.7381E-07	1.5727E-08	6.0480E-07	1.6213E-06
-2.5365E-07	2.3354E-08	2.2930E-08	1.4039E-06
-2.6732E-07	3.9862E-08	-2.1753E-07	2.7852E-06
-2.9119E-07	6.0985E-08	1.3994E-06	2.3510E-06
-3.0785E-07	6.2986E-08	5.8668E-07	1.6382E-06
-2.7994E-07	5.8133E-08	9.8070E-07	2.0610E-06
-2.7322E-07	8.4299E-08	1.1736E-06	1.2973E-06
-2.5801E-07	5.1838E-08	3.2344E-07	3.6144E-07
-2.0764E-07	4.6033E-08	-1.4618E-06	1.7282E-06
-2.0758E-07	6.1751E-08	1.5494E-07	3.0271E-06
-2.1125E-07	6.6249E-08	-1.2651E-07	2.6096E-06
-1.9425E-07	1.8132E-08	1.5094E-06	3.7720E-06
-2.3224E-07	7.6126E-08	1.9658E-06	1.3495E-06
-2.0784E-07	9.0460E-08	8.2922E-07	2.0437E-06
-2.2806E-07	5.4671E-08	1.7453E-06	1.5827E-06
-2.4474E-07	3.2440E-09	1.3431E-06	1.0525E-06
-2.2531E-07	4.6206E-08	5.3947E-07	2.4737E-07
-2.5232E-07	4.9769E-08	-4.0453E-07	2.0448E-06
-2.6463E-07	8.8289E-08	1.6578E-06	1.2524E-06
