jMRUI Data Textfile

Filename: Export_to_jmrui.txt

PointsInDataset: 2048
DatasetsInFile: 1
SamplingInterval: 0.250000
ZeroOrderPhase: 0E0
BeginTime: 0E0
TransmitterFrequency: 1.2326E8
MagneticField: 2.8936E0
TypeOfNucleus:  
NameOfPatient:  
DateOfExperiment:  
Spectrometer:  
AdditionalInfo: 
SignalNames:  


Signal and FFT
sig(real)	sig(imag)	fft(real)	fft(imag)
Signal 1 out of 1 in file
1.9683E-06	1.0067E-06	-1.8334E-06	-4.1817E-07
2.2306E-06	3.8205E-07	-1.5806E-06	9.4081E-07
1.2560E-06	-4.9731E-07	-1.1200E-06	3.4925E-07
8.3535E-07	-8.0636E-07	-1.4889E-06	1.2799E-06
-2.5311E-07	-9.6418E-07	-1.9645E-07	7.8604E-07
-6.4714E-07	-6.2661E-07	-1.2491E-06	1.0265E-07
-1.0514E-06	-2.2409E-07	-1.7810E-06	1.1216E-06
-8.3577E-07	2.2310E-07	-7.0755E-07	2.0696E-06
-5.4806E-07	4.0961E-07	-1.0263E-07	9.0432E-07
-7.7353E-09	4.5539E-07	-4.1983E-07	1.4418E-06
1.0600E-07	2.2788E-07	4.3434E-07	8.1839E-08
2.1070E-07	-1.8873E-08	-1.8402E-06	2.0091E-07
-1.4808E-08	-1.8416E-07	-1.0359E-06	1.8779E-06
-2.0214E-07	-2.0094E-07	-2.8295E-07	1.6821E-06
-4.5044E-07	-1.3912E-07	4.6015E-07	9.6877E-07
-4.4684E-07	5.7120E-08	-8.2574E-07	2.2017E-09
-3.7905E-07	1.6305E-07	-1.4799E-06	1.6965E-06
-2.1623E-07	1.7405E-07	1.9711E-07	1.7334E-06
-2.0242E-07	1.1941E-07	-9.0588E-07	6.9105E-07
-1.4408E-07	9.9611E-08	-5.8710E-07	2.8453E-06
-3.6550E-07	4.3867E-08	1.2543E-06	1.2641E-06
-3.8744E-07	-1.1472E-08	-3.6148E-07	1.0027E-06
-5.1234E-07	1.0956E-07	7.1951E-07	1.6752E-06
-4.1058E-07	2.5436E-07	5.9595E-07	8.0622E-08
-2.7759E-07	3.8657E-07	-1.3015E-06	8.8754E-07
-5.6054E-08	3.3960E-07	7.1532E-07	2.5650E-06
6.0730E-08	3.0349E-07	6.3867E-07	-5.2099E-08
1.2611E-07	1.8683E-07	-8.2099E-08	2.1883E-06
5.6076E-08	7.8000E-08	1.9004E-06	-3.1949E-07
-4.5606E-08	-8.1993E-09	-1.3403E-06	5.5221E-07
-1.7131E-07	1.4684E-08	1.5058E-06	8.9319E-07
-1.6653E-07	1.0094E-07	-1.1322E-06	-8.0841E-07
-2.3348E-07	2.6773E-07	-6.8375E-07	1.6005E-06
-8.4593E-08	3.3552E-07	-5.1141E-07	8.5995E-07
4.8498E-08	3.6543E-07	-1.8765E-07	1.8898E-06
1.5937E-07	2.7539E-07	4.4915E-07	1.3191E-06
2.7770E-07	1.9292E-07	7.0903E-07	1.3473E-06
2.9996E-07	9.8596E-08	1.2327E-06	3.2980E-07
2.6607E-07	3.5605E-08	-2.4869E-07	-6.5274E-07
2.9497E-07	-1.8918E-08	-9.3988E-07	1.2366E-06
2.4917E-07	7.3020E-09	6.3408E-07	5.7638E-07
2.7456E-07	-2.9024E-08	-9.8409E-07	3.6787E-07
3.0311E-07	-1.5171E-07	-1.3052E-07	1.3083E-06
3.5818E-07	-1.4609E-07	-4.6230E-07	8.9333E-07
3.0988E-07	-2.8507E-07	1.8004E-07	1.5428E-06
2.4931E-07	-2.6668E-07	5.4912E-07	5.3459E-07
1.0741E-07	-3.0751E-07	-5.3091E-07	7.0849E-08
1.6552E-07	-1.9461E-07	-9.1272E-07	1.7148E-06
8.7776E-08	-1.2700E-07	1.0532E-06	1.0856E-06
1.5998E-07	-8.3556E-08	-4.4063E-07	-1.1057E-07
2.1288E-07	-5.0181E-08	-6.6322E-07	8.1685E-07
2.5125E-07	-1.5740E-07	-8.2241E-07	8.9827E-07
2.2599E-07	-1.6639E-07	-8.5142E-07	1.0670E-06
1.6754E-07	-2.4427E-07	-1.3125E-06	2.0980E-06
5.0008E-08	-2.7515E-07	4.7990E-07	2.4645E-06
-1.3890E-08	-1.9589E-07	3.4526E-07	1.4524E-06
-3.0678E-08	-1.7449E-07	5.3153E-07	1.4629E-06
-6.1960E-09	-5.2840E-08	4.2541E-07	1.3668E-06
9.3058E-08	-3.5791E-08	9.3107E-07	5.6449E-07
1.7479E-07	-4.2178E-08	-6.2896E-07	6.5830E-07
2.5070E-07	-1.6632E-07	5.4463E-07	1.1024E-06
2.5016E-07	-2.4353E-07	-8.7967E-07	2.7557E-07
2.2932E-07	-3.1699E-07	-4.9574E-07	1.7328E-06
4.3956E-08	-2.8369E-07	-6.5631E-07	1.4230E-06
-4.1106E-08	-2.6322E-07	1.8835E-07	2.2634E-06
-1.3093E-07	-1.5958E-07	1.5374E-07	1.3737E-06
-1.1356E-07	-6.2234E-08	4.1256E-07	1.8369E-06
-3.7813E-08	-4.0129E-08	1.3235E-07	1.4487E-06
-1.9208E-08	1.8241E-09	9.8637E-07	1.9703E-06
8.3722E-08	-3.4785E-08	6.4060E-07	8.3088E-07
1.0258E-07	-1.6031E-07	1.0482E-06	1.3674E-06
1.0703E-07	-1.1425E-07	2.4381E-07	-2.2652E-07
4.5046E-09	-1.4653E-07	-7.1714E-07	1.6403E-06
3.6753E-08	-1.4475E-07	5.3424E-07	1.8212E-06
3.5968E-08	-7.4802E-08	1.4915E-06	1.5825E-06
7.7912E-08	-7.4950E-08	1.1673E-06	-5.5508E-07
1.2958E-07	-7.7498E-08	-7.6534E-07	1.6756E-07
1.5326E-07	-8.9939E-08	-5.8428E-07	1.1092E-06
9.6711E-08	-1.3670E-07	2.1176E-07	1.7116E-06
4.2523E-08	-1.5909E-07	5.8234E-07	3.8898E-07
-1.2166E-08	-1.1979E-07	-6.2997E-07	7.3122E-07
-5.1410E-08	-4.4670E-08	-3.6885E-07	1.2053E-06
-5.0668E-08	-2.8683E-08	-1.8098E-07	1.4912E-06
5.0347E-08	1.7297E-08	-1.5280E-07	1.0794E-06
1.1999E-07	-3.1474E-08	-3.0652E-07	1.9921E-06
1.7649E-07	-6.3018E-08	8.5384E-07	1.2046E-06
1.4666E-07	-1.4479E-07	-5.5942E-07	9.4714E-07
1.2465E-07	-2.4787E-07	2.4992E-07	1.9027E-06
6.0141E-08	-2.2644E-07	-5.4862E-08	7.5760E-07
3.6050E-09	-2.4048E-07	-8.3576E-07	2.3174E-06
-9.6593E-08	-2.0742E-07	1.1496E-06	2.3766E-06
-1.6768E-07	-1.8023E-07	4.5902E-07	1.4028E-06
-7.6875E-08	-6.6105E-08	1.6447E-06	2.2524E-06
-5.6173E-08	-3.6065E-08	1.5987E-06	-6.5454E-07
-1.8331E-08	3.1013E-09	-9.4666E-07	6.4218E-07
6.9489E-08	-7.7027E-08	4.2590E-07	9.8968E-07
7.3785E-08	-1.0738E-07	-1.0529E-06	1.2052E-06
-1.1369E-08	-1.4819E-07	8.5887E-07	2.2926E-06
-5.8485E-08	-2.3056E-07	-8.2001E-08	6.3643E-07
-7.1640E-08	-2.4686E-07	5.6672E-07	2.9608E-06
-1.2210E-07	-2.3329E-07	2.3364E-06	1.6181E-07
-1.9634E-07	-2.0757E-07	-3.5320E-07	-1.9449E-07
-1.9260E-07	-1.3816E-07	-3.0455E-07	4.3141E-07
-1.1221E-07	-1.2978E-07	-1.5862E-06	1.2585E-06
-1.7440E-07	-1.4774E-07	6.9373E-08	2.9434E-06
-1.9463E-07	-1.2897E-07	1.1295E-06	1.3631E-06
-1.7933E-07	-1.6137E-07	3.9064E-08	1.0788E-06
-2.3789E-07	-1.2604E-07	5.7847E-07	1.7178E-06
-2.2857E-07	-8.6514E-08	3.6279E-07	4.3420E-07
-1.8694E-07	-6.7175E-08	-7.8214E-07	1.9207E-06
-1.4965E-07	-7.7040E-08	1.0672E-06	1.8826E-06
-1.7028E-07	-6.9244E-08	2.9107E-07	1.4839E-06
-1.4587E-07	-8.1850E-08	1.8064E-06	1.1931E-06
-1.5206E-07	-1.2003E-07	-3.4924E-07	-5.2923E-07
-2.1840E-07	-1.2597E-07	-4.5136E-07	2.0016E-06
-2.5575E-07	-1.5309E-07	4.9752E-07	5.8157E-07
-2.4183E-07	-1.0820E-07	-1.0415E-06	1.3099E-06
-2.6129E-07	-9.9317E-08	-1.2390E-07	2.1408E-06
-3.0132E-07	-3.6712E-08	2.4983E-07	2.1263E-06
-2.6969E-07	-1.7234E-08	9.6486E-07	1.6876E-06
-2.0693E-07	-4.3516E-08	2.5032E-07	1.0272E-06
-1.7561E-07	-8.3516E-08	2.8920E-07	1.7662E-06
-1.9252E-07	-8.8156E-08	3.0457E-07	9.3803E-07
-1.8059E-07	-1.6622E-07	-5.7266E-07	2.2302E-06
-2.5926E-07	-1.5378E-07	1.3058E-06	2.1037E-06
-2.3742E-07	-6.3344E-08	1.4502E-07	1.3989E-06
-2.7561E-07	-1.2299E-07	1.3486E-06	2.3035E-06
-3.0218E-07	-1.8299E-08	1.0458E-06	5.3922E-07
-2.8958E-07	-3.0169E-08	3.5171E-07	1.3323E-06
-2.4728E-07	-2.3826E-08	4.3378E-07	1.1160E-06
-2.5061E-07	-3.8764E-08	4.7306E-07	1.5180E-06
-2.5281E-07	-5.5849E-08	1.2354E-07	1.2015E-06
-2.7587E-07	6.8551E-09	5.4844E-07	2.5320E-06
-2.3853E-07	2.7257E-09	1.7556E-06	1.3408E-06
-2.6099E-07	-3.4915E-08	1.1696E-06	9.6695E-07
-1.9599E-07	-3.3680E-09	1.0697E-06	1.0479E-07
-2.1393E-07	-4.0363E-08	-4.7126E-07	6.0363E-07
-1.7843E-07	-4.8530E-08	2.1883E-07	1.7875E-06
-1.9054E-07	-1.0217E-07	1.1192E-06	1.2996E-06
-2.3185E-07	-7.6759E-08	5.3661E-07	1.9352E-07
-2.5534E-07	-1.0072E-07	-4.1659E-07	1.3470E-06
-3.1271E-07	-1.4664E-07	1.1005E-06	1.3094E-06
-3.2341E-07	-3.3466E-08	2.4075E-09	-4.6971E-08
-3.2835E-07	-8.1403E-08	-1.2805E-06	1.4241E-06
-3.1936E-07	-3.2205E-08	2.5773E-07	3.1367E-06
-3.4122E-07	1.3704E-08	2.2111E-06	1.2082E-06
-2.7929E-07	-3.0668E-08	2.1357E-08	6.6554E-08
-2.8378E-07	-2.1214E-08	3.2194E-07	1.4440E-06
-2.8880E-07	-5.3787E-08	7.9397E-08	4.5081E-07
-3.1662E-07	-2.2771E-08	-3.6506E-07	1.6579E-06
-3.2490E-07	3.8459E-09	5.4155E-07	1.4265E-06
-3.8258E-07	6.9372E-09	6.3440E-07	8.3279E-07
-3.4434E-07	1.6025E-08	-8.7281E-07	-7.8676E-08
-3.3722E-07	3.8037E-08	-1.7698E-06	2.7089E-06
-3.1301E-07	1.5814E-08	8.3456E-07	2.6911E-06
-3.1869E-07	4.4680E-08	2.7353E-07	1.6557E-06
-2.9312E-07	4.3962E-08	1.2885E-07	1.8537E-06
-2.8583E-07	2.2575E-08	7.9989E-08	2.7248E-06
-2.8708E-07	6.7587E-08	1.6437E-06	2.1646E-06
-2.4045E-07	8.4051E-08	5.5972E-07	1.5554E-06
-2.9061E-07	8.8855E-09	1.5150E-06	1.9712E-06
-2.9969E-07	7.6528E-08	7.6530E-07	9.6998E-07
-3.0867E-07	4.7966E-08	1.2304E-06	1.8023E-06
-3.2193E-07	5.9780E-08	9.6299E-07	4.0153E-07
-3.2195E-07	3.8127E-08	2.8172E-07	1.5064E-06
-3.3175E-07	9.0733E-08	1.0991E-06	7.9885E-07
-3.3352E-07	3.6399E-08	-3.4589E-07	7.6964E-07
-3.4960E-07	7.4974E-08	5.9248E-08	2.1325E-06
-3.4151E-07	1.0981E-07	9.5768E-07	1.7196E-06
-3.3114E-07	1.0803E-07	6.9182E-07	1.4100E-06
-2.9444E-07	1.2685E-07	8.3991E-07	1.4948E-06
-2.8212E-07	1.2500E-07	8.5471E-07	1.2944E-06
-3.2186E-07	8.9296E-08	7.9086E-07	1.1471E-06
-3.0758E-07	8.4479E-08	6.3438E-07	1.3574E-06
-3.2437E-07	4.7743E-08	1.0811E-06	1.0631E-06
-2.9073E-07	6.3350E-08	2.6868E-07	1.0080E-06
-2.7611E-07	1.0008E-07	1.2355E-06	1.7336E-06
-2.9908E-07	1.0903E-07	1.4437E-06	7.0516E-08
-2.7694E-07	3.7048E-08	4.7623E-08	1.1497E-08
-3.2186E-07	3.1272E-08	-3.0188E-07	6.0314E-07
-3.0119E-07	6.1692E-08	-3.6567E-07	8.9477E-07
-3.0073E-07	7.7513E-08	-7.4931E-07	1.3169E-06
-2.9819E-07	1.1541E-07	-1.8560E-07	2.2197E-06
-2.7464E-07	5.8144E-08	4.4609E-07	1.8160E-06
-3.0654E-07	6.5665E-08	4.5402E-07	1.8829E-06
-3.0308E-07	7.1644E-08	9.8464E-07	1.5315E-06
-2.6939E-07	6.3526E-08	4.6075E-07	9.0985E-07
-2.8435E-07	7.4306E-08	-2.6744E-08	1.6951E-06
-3.5121E-07	1.0060E-07	1.1925E-06	1.8485E-06
-2.9942E-07	9.4454E-08	9.0296E-07	2.9332E-07
-3.4825E-07	1.5317E-07	-7.6546E-07	9.2661E-07
-2.9651E-07	8.7730E-08	1.7305E-07	2.6000E-06
-3.1060E-07	1.1594E-07	1.5469E-06	1.2032E-06
-3.1395E-07	1.5095E-07	-7.8944E-08	8.5804E-07
-3.0554E-07	1.2594E-07	1.0001E-06	1.7051E-06
-2.4074E-07	1.2158E-07	1.6465E-07	1.0658E-07
-2.6937E-07	1.7331E-07	-2.1407E-07	2.1348E-06
-2.7397E-07	1.6437E-07	1.3562E-06	4.9229E-07
-3.2598E-07	1.1172E-07	-1.1922E-06	3.9924E-07
-2.9693E-07	1.1610E-07	-5.8957E-07	1.9842E-06
-2.6278E-07	1.1238E-07	-5.3150E-07	2.2899E-06
-2.7718E-07	1.0295E-07	1.1166E-06	2.4723E-06
-2.6675E-07	1.1612E-07	8.3143E-08	8.1111E-07
-2.8176E-07	1.0133E-07	-1.2260E-07	2.7758E-06
