jMRUI Data Textfile

Filename: Export_to_jmrui.txt

PointsInDataset: 2048
DatasetsInFile: 1
SamplingInterval: 0.250000
ZeroOrderPhase: 0E0
BeginTime: 0E0
TransmitterFrequency: 1.2326E8
MagneticField: 2.8936E0
TypeOfNucleus:  
NameOfPatient:  
DateOfExperiment:  
Spectrometer:  
AdditionalInfo: 
SignalNames:  


Signal and FFT
sig(real)	sig(imag)	fft(real)	fft(imag)
Signal 1 out of 1 in file
1.5403E-06	8.7047E-07	-2.1703E-06	-3.2239E-07
1.3355E-06	3.4767E-07	-2.2649E-06	1.1268E-06
7.0740E-07	-3.5444E-07	-8.1876E-07	1.0479E-06
4.8947E-07	-5.3590E-07	-1.4937E-06	1.4445E-06
-2.6916E-07	-6.7505E-07	4.2003E-07	1.6219E-06
-5.6216E-07	-4.9218E-07	-2.9985E-07	4.4458E-07
-8.2566E-07	-1.9032E-07	3.3375E-07	5.1627E-07
-6.2879E-07	8.4616E-08	-1.5035E-06	-3.0912E-07
-4.1875E-07	2.0475E-07	-5.6830E-07	2.0800E-06
-3.0422E-08	2.0117E-07	-1.8542E-08	-1.9873E-07
9.9897E-09	1.4533E-08	-1.7285E-06	1.1982E-06
8.4738E-08	-1.0052E-07	-4.9266E-07	1.7079E-06
-1.0439E-07	-2.5781E-07	-1.5218E-07	1.7294E-06
-2.6394E-07	-1.8966E-07	-5.6215E-08	9.7140E-07
-4.2816E-07	-9.4609E-08	-4.8493E-07	1.9264E-06
-3.9145E-07	8.0833E-08	7.8157E-07	1.4476E-06
-3.3283E-07	1.7706E-07	1.0322E-08	9.8523E-07
-2.1126E-07	1.7147E-07	-7.4792E-08	1.3754E-06
-1.6634E-07	1.3309E-07	3.3668E-07	2.1642E-06
-1.5090E-07	-1.8598E-08	1.5767E-06	1.1007E-06
-2.4099E-07	-6.7734E-08	2.8527E-07	7.0967E-07
-3.0000E-07	-8.9836E-08	1.1266E-06	1.2695E-06
-4.0915E-07	2.8851E-08	9.2995E-07	1.6366E-07
-3.1119E-07	1.5451E-07	3.2302E-07	1.8506E-07
-2.6491E-07	2.6221E-07	-2.8127E-07	6.1514E-07
-8.7633E-08	2.9436E-07	3.5645E-07	1.1700E-06
-1.4831E-08	2.9970E-07	1.3429E-07	8.7120E-07
1.0504E-07	1.3110E-07	9.3201E-07	1.5523E-06
4.7558E-08	-9.6566E-09	1.1954E-06	-9.7136E-08
2.4679E-08	-4.9406E-08	-3.4239E-07	2.4081E-07
-1.5283E-07	-1.0042E-10	-3.8414E-08	1.3182E-06
-1.6363E-07	8.4207E-08	1.1053E-06	1.4042E-06
-1.2359E-07	1.8333E-07	1.1062E-06	-2.9078E-08
5.4574E-09	3.2357E-07	7.2705E-08	5.1796E-07
6.1210E-08	3.4132E-07	8.0875E-07	6.1542E-07
2.1703E-07	2.4576E-07	5.8083E-07	2.8490E-07
2.3301E-07	2.2930E-07	5.3960E-07	-5.7443E-08
2.8706E-07	8.4721E-08	-1.6727E-07	1.2785E-07
3.0076E-07	7.7697E-08	-1.0895E-07	3.6903E-07
2.5239E-07	1.4201E-07	-1.9361E-07	1.0434E-06
2.5245E-07	6.3089E-08	8.2433E-07	4.7636E-07
2.7267E-07	6.4002E-08	-4.0762E-07	2.9436E-07
2.2895E-07	1.1175E-09	3.9575E-07	9.5921E-07
3.1330E-07	-8.0663E-08	4.0272E-08	4.8387E-07
3.0710E-07	-1.0483E-07	6.6218E-07	5.9584E-07
2.2995E-07	-1.0855E-07	-4.1708E-07	-1.6054E-08
1.6079E-07	-1.4330E-07	3.2443E-07	1.0539E-06
1.8937E-07	-1.2445E-07	-4.5212E-07	-4.8820E-07
1.1555E-07	-6.7456E-08	-1.0085E-06	1.9343E-06
1.4798E-07	4.1431E-09	9.5609E-07	8.0269E-07
1.4725E-07	-5.2014E-08	-8.8629E-07	8.4507E-07
2.7267E-07	-7.3494E-08	9.3149E-07	2.1287E-06
2.3365E-07	-1.6299E-07	1.0896E-06	-3.2604E-07
2.2411E-07	-1.8023E-07	-8.8309E-07	6.1223E-07
9.2676E-08	-2.2680E-07	5.9776E-07	1.2503E-06
2.1333E-08	-1.3164E-07	-1.9512E-07	2.5115E-07
1.0344E-08	-1.2793E-07	-5.2333E-08	1.5095E-06
5.5392E-08	-9.2066E-09	6.6348E-07	6.3827E-07
1.5862E-07	5.4637E-08	-1.9395E-07	3.0057E-07
2.0625E-07	-1.2730E-08	-9.1999E-07	1.1283E-06
2.4940E-07	-5.4801E-08	7.7995E-08	2.2051E-06
2.6427E-07	-1.2824E-07	8.7576E-07	1.6472E-06
2.0495E-07	-2.1999E-07	1.4815E-06	1.0663E-06
1.1764E-07	-1.9220E-07	5.7061E-07	-9.6169E-08
1.8334E-08	-1.9009E-07	2.2479E-07	8.1836E-07
-5.2064E-08	-1.5739E-07	1.7296E-07	1.4297E-07
-3.0757E-08	-4.9526E-08	-5.1028E-07	1.0769E-06
5.5328E-09	7.2642E-09	5.6512E-08	1.4623E-06
4.8103E-08	-5.7738E-08	1.0480E-06	1.7741E-06
6.8599E-08	2.7298E-08	1.2667E-06	-1.1274E-07
1.2904E-07	4.7432E-09	-2.3182E-07	5.7623E-07
1.2499E-07	-3.7445E-08	7.5453E-07	4.5223E-07
1.3082E-07	-6.6206E-08	-5.3090E-07	2.4643E-07
1.1208E-07	-3.0514E-08	2.5144E-07	1.1763E-06
1.0565E-07	-5.0474E-08	-1.9507E-07	-2.6687E-08
1.0065E-07	-2.8932E-08	-1.0593E-06	1.8760E-06
9.2692E-08	-9.1293E-09	1.7001E-06	1.5454E-06
1.7487E-07	-2.8382E-08	-2.9988E-07	-9.1014E-07
1.0259E-07	-1.0000E-08	-1.3460E-06	1.9195E-06
5.4395E-08	-5.4186E-08	5.9343E-07	1.6864E-06
3.1835E-08	-7.8200E-08	4.6777E-07	1.2391E-06
-1.2105E-08	3.1329E-08	1.9150E-07	3.1869E-07
2.3067E-09	2.2254E-08	-1.0709E-06	1.8611E-06
4.7983E-08	7.9528E-08	1.4027E-06	2.1414E-06
1.0156E-07	9.0875E-08	4.3727E-07	2.5310E-07
1.5014E-07	3.3012E-08	-1.9405E-08	1.5927E-06
1.6752E-07	-1.3633E-08	8.8497E-07	9.7812E-07
1.7683E-07	-6.7803E-08	-9.3247E-08	5.6124E-07
1.0721E-07	-1.4658E-07	-4.5111E-07	1.5345E-06
2.7606E-08	-1.1964E-07	5.0846E-07	2.2018E-06
-1.1307E-08	-1.0520E-07	1.4361E-06	1.1296E-06
-7.8383E-08	9.6319E-09	3.5746E-07	3.7048E-07
-2.9627E-08	4.5653E-08	1.1874E-08	9.0173E-07
-7.5804E-09	8.0919E-08	-4.4283E-07	1.1994E-06
3.8438E-08	3.9667E-08	2.1969E-07	2.1675E-06
1.0346E-07	-2.1330E-08	7.2214E-07	1.5125E-06
7.6686E-08	-8.0849E-08	7.9864E-07	1.6804E-06
4.9056E-08	-1.2660E-07	9.9112E-07	1.0214E-06
-2.9981E-08	-1.0677E-07	6.7226E-07	9.2298E-07
-3.6682E-08	-8.4353E-08	-1.7733E-07	6.9829E-07
-7.4691E-08	-1.1080E-07	3.4094E-09	2.6458E-06
-1.2299E-07	-4.6724E-08	1.9284E-06	1.4394E-06
-8.4609E-08	-7.7735E-08	4.3877E-07	8.4128E-07
-9.8688E-08	-9.8600E-08	1.0427E-06	1.5757E-06
-1.1039E-07	-2.5993E-08	1.0999E-06	8.7635E-07
-1.3108E-07	-9.4044E-08	8.5082E-07	6.4918E-07
-1.6536E-07	-9.2758E-08	1.0066E-07	7.2871E-07
-1.7565E-07	-3.9617E-08	1.6725E-07	1.6441E-06
-1.8784E-07	-2.5068E-08	9.4337E-07	1.8898E-06
-1.8585E-07	-2.0655E-08	1.5654E-06	1.1640E-06
-1.5059E-07	7.0155E-09	8.2378E-07	7.8162E-07
-1.2738E-07	3.6818E-09	1.4395E-06	1.1746E-06
-1.0544E-07	-5.6442E-08	8.3010E-07	-4.1425E-07
-9.8339E-08	-3.4881E-09	-6.2111E-07	1.4436E-06
-1.3342E-07	-5.1281E-08	1.6074E-06	1.4442E-06
-1.9160E-07	-7.3917E-08	1.0821E-07	4.7056E-07
-2.0655E-07	-4.0392E-08	1.0456E-06	1.9596E-06
-2.6619E-07	5.1348E-09	1.1519E-06	5.2163E-07
-1.9023E-07	3.4891E-08	1.2516E-06	1.3107E-06
-1.7582E-07	9.7210E-08	1.3074E-06	-5.5886E-07
-1.4584E-07	8.0335E-08	-6.6410E-07	6.6275E-07
-1.3716E-07	-1.2287E-08	7.6127E-07	1.4411E-06
-1.5163E-07	-2.1280E-08	6.8359E-07	8.6278E-07
-1.7652E-07	-2.2965E-08	9.4899E-07	9.6737E-07
-1.5157E-07	-8.2873E-08	9.0858E-07	1.3016E-07
-1.7468E-07	-4.7876E-08	-5.5859E-07	2.8744E-07
-1.9701E-07	-6.6474E-08	-1.2841E-08	2.1024E-06
-2.2102E-07	-3.0332E-08	1.2961E-06	1.1924E-06
-2.2579E-07	2.9642E-09	5.6915E-07	8.2030E-07
-2.1019E-07	1.2410E-08	7.7938E-07	1.1908E-06
-2.0092E-07	6.5618E-09	1.2537E-06	5.5653E-07
-1.8905E-07	4.2588E-09	-6.0881E-08	-2.9108E-08
-2.1599E-07	3.8741E-08	1.4080E-09	1.3794E-06
-1.9948E-07	-1.1416E-08	-5.6839E-08	4.9824E-07
-1.5092E-07	-4.1609E-08	-7.8584E-07	2.4794E-06
-1.7579E-07	4.7649E-09	1.3717E-06	2.5401E-06
-1.3300E-07	-7.1946E-08	1.7630E-06	2.0526E-06
-1.0555E-07	-4.1229E-08	2.5883E-06	3.9776E-07
-2.2633E-07	-6.5418E-08	5.5302E-07	-1.4939E-07
-1.8308E-07	-4.6186E-08	6.2883E-07	5.6447E-07
-2.1809E-07	-2.9203E-08	-3.6747E-07	9.2586E-07
-2.9682E-07	3.3672E-09	1.0435E-06	2.6058E-06
-2.8585E-07	-2.1779E-08	2.4018E-06	7.0158E-07
-2.5370E-07	-1.1979E-09	8.0018E-07	1.3278E-07
-2.7149E-07	-1.1616E-08	1.2617E-06	9.9445E-07
-1.7701E-07	1.9377E-08	1.1866E-06	-1.5775E-07
-2.1025E-07	1.9242E-08	5.2226E-07	5.2703E-07
-2.5417E-07	-2.4037E-09	7.4217E-07	-7.5756E-08
-2.4453E-07	-1.9919E-08	-2.8047E-07	9.5670E-07
-2.3484E-07	3.1572E-08	1.3281E-06	9.9071E-07
-2.7338E-07	7.1349E-09	4.2933E-07	2.3039E-07
-2.3760E-07	-2.4972E-09	9.0605E-07	6.9214E-07
-2.5929E-07	4.9531E-08	2.7355E-07	-1.5837E-07
-2.3110E-07	8.7982E-08	-2.8328E-07	7.8912E-07
-2.5299E-07	2.2835E-08	1.2936E-07	1.2604E-06
-2.5557E-07	9.2321E-08	6.9624E-07	1.2996E-06
-2.7424E-07	9.1951E-08	8.3349E-07	1.1449E-06
-2.1154E-07	1.0264E-07	1.5710E-06	7.7098E-07
-2.9712E-07	4.6591E-08	7.6389E-07	-4.2075E-07
-2.5469E-07	2.0704E-08	1.7263E-07	3.7295E-07
-2.3813E-07	5.7610E-08	1.2567E-07	-1.9524E-07
-2.5063E-07	8.2920E-08	-1.0782E-06	9.8801E-07
-2.8460E-07	8.0742E-08	5.7706E-07	1.8594E-06
-2.5269E-07	7.2424E-08	9.1527E-07	7.3232E-07
-2.7498E-07	6.7348E-08	5.1000E-07	1.2906E-07
-2.2929E-07	1.2276E-07	-8.0512E-07	7.1418E-07
-2.9281E-07	8.2809E-08	6.7152E-07	1.6920E-06
-2.8299E-07	7.9786E-08	-7.7971E-08	1.7381E-07
-2.5151E-07	1.1360E-07	3.8260E-08	2.1629E-06
-2.3039E-07	1.0654E-07	1.0574E-06	1.0730E-07
-2.2408E-07	9.1832E-08	-1.3611E-06	1.2543E-06
-1.7549E-07	1.1509E-07	7.4499E-07	2.5723E-06
-1.8903E-07	8.4804E-08	1.0787E-06	1.1753E-06
-1.4770E-07	6.9812E-08	4.3153E-07	1.1613E-06
-1.8845E-07	2.7315E-08	8.2065E-07	1.8365E-06
-2.2531E-07	8.8486E-08	1.3757E-06	9.0473E-07
-2.1604E-07	7.0562E-08	6.9456E-07	1.0982E-06
-1.8767E-07	7.2067E-08	1.2494E-06	7.4926E-07
-2.4527E-07	7.4793E-08	4.2175E-07	8.6086E-07
-1.9216E-07	1.1466E-07	1.2976E-06	1.0858E-06
-1.9238E-07	9.2114E-08	9.3674E-07	2.8554E-07
-1.9595E-07	8.8199E-08	6.5103E-07	4.2922E-07
-2.3906E-07	8.7654E-08	4.8444E-07	4.3380E-07
-2.2150E-07	5.7308E-08	2.7178E-07	3.3636E-07
-2.3557E-07	3.7617E-08	-8.2417E-08	8.8392E-07
-2.4189E-07	1.1691E-07	3.6496E-07	9.6521E-07
-2.5860E-07	8.5054E-08	3.5702E-07	1.3003E-06
-2.6599E-07	1.0047E-07	1.3072E-06	5.2533E-07
-2.3850E-07	1.0377E-07	-4.0113E-07	-9.9788E-08
-2.4521E-07	1.3045E-07	-2.1919E-07	1.5789E-06
-2.9417E-07	8.3573E-08	6.1901E-07	9.7410E-07
-2.3501E-07	1.0181E-07	3.8608E-09	7.2479E-07
-2.7031E-07	1.2857E-07	-4.1135E-07	1.4474E-06
-2.2204E-07	1.3238E-07	6.5826E-07	2.3860E-06
-2.2480E-07	1.2973E-07	1.8695E-06	9.3287E-07
-2.5760E-07	1.2870E-07	1.3167E-07	2.8395E-08
-1.7542E-07	1.4810E-07	-4.0366E-08	1.8534E-06
-2.2574E-07	1.4447E-07	1.6438E-06	1.4863E-06
-2.3189E-07	1.0008E-07	1.3346E-06	-8.7435E-08
-2.0668E-07	1.3446E-07	-3.3417E-07	2.0769E-08
-2.6162E-07	1.2326E-07	2.7433E-08	1.5741E-06
-1.4997E-07	1.0714E-07	8.9301E-07	8.9367E-07
-1.8287E-07	1.2719E-07	5.9719E-07	6.8329E-07
-2.2676E-07	1.2448E-07	2.3346E-07	2.2594E-07
-1.8407E-07	1.1592E-07	-3.6829E-07	1.0665E-06
