jMRUI Data Textfile

Filename: Export_to_jmrui.txt

PointsInDataset: 2048
DatasetsInFile: 1
SamplingInterval: 0.250000
ZeroOrderPhase: 0E0
BeginTime: 0E0
TransmitterFrequency: 1.2326E8
MagneticField: 2.8936E0
TypeOfNucleus:  
NameOfPatient:  
DateOfExperiment:  
Spectrometer:  
AdditionalInfo: 
SignalNames:  


Signal and FFT
sig(real)	sig(imag)	fft(real)	fft(imag)
Signal 1 out of 1 in file
1.6417E-06	7.9229E-07	-3.6313E-07	8.0073E-07
9.8920E-07	2.5725E-07	9.3847E-07	2.3415E-07
4.3707E-07	-2.2606E-07	-5.8404E-07	-5.0431E-07
3.2920E-07	-3.4479E-07	-1.1321E-06	7.5886E-07
-2.4736E-07	-4.1519E-07	-8.9165E-07	1.8487E-06
-4.3335E-07	-2.4030E-07	8.5372E-07	2.7226E-06
-6.4213E-07	5.3136E-08	2.2585E-06	6.0354E-07
-4.4915E-07	2.1358E-07	3.0860E-07	-2.5989E-07
-2.8762E-07	2.3570E-07	4.6801E-07	5.6680E-07
2.0668E-08	1.6702E-07	-3.4726E-07	3.2677E-07
7.2854E-08	6.4078E-08	4.9872E-07	1.7442E-06
8.4851E-08	-8.9923E-08	8.1641E-07	3.5168E-07
-6.4471E-08	-1.4049E-07	6.5862E-07	1.2148E-06
-2.3393E-07	-8.5324E-08	9.4306E-07	-3.2144E-07
-3.4196E-07	1.5576E-08	-5.6520E-07	1.0885E-06
-3.4232E-07	7.1731E-08	1.4397E-06	8.8001E-07
-2.7852E-07	1.7708E-07	-9.9666E-08	2.7008E-08
-1.0152E-07	2.1923E-07	4.0456E-07	1.2695E-06
-6.1865E-08	1.0021E-07	4.9929E-07	5.6087E-07
-8.9419E-08	3.7622E-08	4.3274E-07	1.2750E-06
-1.6664E-07	-8.3983E-08	1.3485E-06	7.6594E-07
-2.0757E-07	7.8547E-09	5.9661E-07	1.2643E-07
-2.5491E-07	3.5520E-08	7.8630E-07	9.6497E-07
-1.6843E-07	1.0930E-07	1.6349E-06	-3.9875E-07
-1.3771E-07	2.3608E-07	-4.7442E-07	-1.2252E-06
-2.2290E-08	2.2926E-07	-1.2770E-06	6.2182E-07
7.0032E-08	1.5226E-07	-4.7196E-07	1.2168E-06
1.1176E-07	2.9763E-08	-3.5636E-07	1.5925E-06
8.8557E-08	-5.3339E-08	8.4707E-07	1.7621E-06
-3.8145E-08	-5.0321E-08	6.0705E-07	3.9757E-07
-1.0374E-07	-7.3451E-08	-1.4801E-07	1.3259E-06
-1.3568E-07	6.4342E-08	7.7685E-07	1.1067E-06
-1.5377E-07	1.6962E-07	-2.7644E-08	9.6494E-07
-4.1373E-08	1.9918E-07	3.3470E-07	1.6485E-06
6.3390E-09	2.8845E-07	6.5124E-07	1.7894E-06
1.6185E-07	2.1092E-07	1.6948E-06	1.5110E-06
2.0698E-07	9.1772E-08	1.1423E-06	1.6275E-07
2.6781E-07	9.4266E-08	1.1034E-07	8.8946E-07
2.8435E-07	5.9226E-09	7.0685E-07	1.7141E-06
2.3255E-07	-6.6873E-08	1.6834E-06	1.4782E-06
1.8302E-07	-4.5926E-08	2.0097E-06	4.8646E-07
2.2529E-07	-7.9359E-08	1.4191E-06	-5.7212E-07
2.4958E-07	-6.0639E-08	-1.4843E-07	-3.2009E-07
2.6488E-07	-1.4053E-07	2.9546E-07	9.4210E-07
2.5864E-07	-1.6835E-07	4.4318E-07	1.9237E-07
2.2280E-07	-2.3769E-07	1.0560E-07	1.0513E-06
1.3447E-07	-2.2438E-07	9.5162E-07	2.6587E-07
9.7998E-08	-1.7935E-07	-6.3865E-07	2.1720E-07
1.0029E-07	-1.6311E-07	-2.3117E-07	1.5439E-06
1.6393E-07	-1.0890E-07	2.7997E-07	1.5686E-06
1.8993E-07	-1.1918E-07	8.9568E-07	1.4019E-06
2.0507E-07	-1.4719E-07	4.8829E-07	9.9590E-07
1.9380E-07	-2.1381E-07	1.0022E-06	1.3936E-06
1.5509E-07	-2.8178E-07	6.6180E-07	1.5662E-07
1.0379E-07	-2.8227E-07	-5.8717E-07	1.3502E-06
5.6919E-08	-2.6064E-07	6.5288E-07	2.2219E-06
5.2098E-09	-1.7090E-07	1.2737E-06	1.8370E-06
7.6025E-08	-9.6404E-08	1.8199E-06	1.2276E-06
9.6622E-08	-6.0338E-08	1.2187E-06	5.3357E-07
1.2390E-07	-1.0599E-07	1.2226E-06	8.6985E-07
1.9214E-07	-1.1221E-07	1.0340E-06	3.6033E-08
2.5624E-07	-1.7360E-07	-9.4118E-08	6.4608E-07
1.8485E-07	-2.3720E-07	4.7355E-07	1.6215E-06
8.6940E-08	-3.1422E-07	1.3592E-06	1.2995E-06
3.7060E-08	-2.2953E-07	7.8386E-07	4.3840E-07
-2.8585E-08	-1.8917E-07	3.9240E-07	1.8267E-06
-4.3744E-08	-1.5504E-07	2.2310E-06	1.3600E-06
-5.6374E-08	-9.7359E-08	1.4414E-06	6.9851E-08
-9.6791E-09	-8.2411E-08	1.0007E-06	1.9591E-07
5.1843E-08	-5.4343E-08	4.3678E-07	5.5949E-07
3.8844E-08	4.6657E-09	1.3901E-06	7.0136E-07
6.7918E-08	-1.0206E-07	3.4562E-07	-4.9876E-07
1.0238E-07	-1.0730E-07	-3.5842E-07	1.1941E-06
1.0787E-07	-7.8009E-08	1.0370E-06	1.1952E-06
9.1536E-08	-8.3837E-08	6.1590E-07	2.7441E-07
1.3218E-07	-1.0336E-07	-2.0485E-07	7.8126E-07
1.2394E-07	-1.1195E-07	-6.4051E-08	1.6121E-06
1.3215E-07	-1.3416E-07	6.3990E-07	2.4060E-06
4.2106E-08	-8.4446E-08	2.4822E-06	1.7250E-06
-1.8192E-08	-1.0396E-07	1.5503E-06	-5.1218E-07
-2.3677E-08	-7.0787E-08	-1.8905E-07	6.9646E-07
-1.4644E-08	-7.0356E-08	9.4273E-07	1.3429E-06
-1.9751E-08	-1.1432E-08	2.2293E-07	9.8244E-07
4.8315E-08	-2.0732E-08	1.4158E-06	2.7941E-06
7.3202E-08	-4.2125E-08	3.1151E-06	1.1507E-07
1.4104E-07	-2.3387E-08	6.3117E-07	-1.1739E-07
1.3080E-07	-9.9483E-08	1.7204E-06	7.8048E-08
8.0866E-08	-8.8931E-08	-4.2995E-07	-6.6687E-07
3.0199E-08	-1.8964E-07	1.9695E-07	1.5440E-06
1.3961E-08	-1.6417E-07	5.5444E-07	3.9593E-07
-5.8243E-08	-1.4343E-07	3.3332E-08	1.4378E-06
-6.8787E-08	-4.3748E-08	1.0945E-06	1.5772E-06
-7.4390E-08	-9.3814E-08	1.5086E-06	6.3434E-07
-4.6708E-08	-5.1533E-08	1.9847E-07	5.3186E-07
-2.4099E-08	-1.1861E-08	1.3518E-06	1.5018E-06
-8.0798E-10	-6.0714E-08	7.0502E-07	-1.8437E-07
-2.0454E-08	-1.2508E-07	3.8888E-07	1.7125E-06
-4.1089E-08	-1.3688E-07	1.5619E-06	7.8381E-08
-6.3091E-08	-1.3113E-07	-5.9922E-07	7.8578E-07
-1.1767E-07	-1.3186E-07	1.2074E-06	1.9797E-06
-6.8706E-08	-1.3326E-07	1.2676E-06	2.7831E-07
-1.2812E-07	-6.1100E-08	-1.1664E-07	9.5355E-07
-1.1196E-07	-4.5842E-08	1.2719E-06	2.2283E-06
-1.2534E-07	-2.5067E-08	2.0697E-06	2.7624E-07
-1.0686E-07	-5.8536E-08	5.5574E-07	5.0774E-07
-1.8081E-07	-1.1386E-07	1.4786E-06	3.6280E-07
-1.5887E-07	-6.3604E-08	-3.2318E-07	4.7292E-08
-1.7411E-07	-5.4503E-08	9.4399E-07	1.7848E-06
-2.1570E-07	-5.1566E-08	5.7309E-07	-3.3204E-07
-2.0202E-07	-8.4699E-09	-2.7056E-07	2.1896E-06
-1.4307E-07	1.4666E-08	1.8359E-06	6.6058E-07
-1.8709E-07	2.7227E-09	-2.4219E-07	1.4254E-06
-1.5037E-07	4.6804E-09	2.4104E-06	1.0580E-06
-1.4503E-07	-3.2285E-08	-6.6896E-07	1.2777E-07
-1.7278E-07	-2.9418E-08	1.7312E-06	2.8601E-06
-2.0323E-07	-8.1865E-10	1.7868E-06	-3.6277E-07
-2.1333E-07	-7.9390E-09	7.5829E-07	9.4592E-07
-2.5263E-07	7.1175E-08	9.7330E-07	1.8477E-07
-2.4632E-07	2.6253E-08	7.5010E-07	1.0430E-06
-2.2652E-07	2.5314E-08	1.1871E-06	3.4774E-07
-1.7318E-07	4.4927E-08	9.8689E-07	1.0254E-07
-1.7182E-07	6.2431E-08	-4.1334E-07	-3.0529E-07
-2.1664E-07	-6.2184E-09	-1.4668E-07	1.5863E-06
-1.5555E-07	-2.3298E-08	1.7435E-08	7.2652E-07
-2.0757E-07	1.8692E-09	6.0207E-08	2.4798E-06
-2.3848E-07	6.4407E-09	1.6013E-06	1.5387E-06
-2.7777E-07	2.7031E-08	1.4733E-06	1.0136E-06
-2.6050E-07	2.9625E-08	3.6264E-07	1.9437E-07
-2.5587E-07	1.1698E-08	7.6553E-07	2.5482E-06
-2.3207E-07	1.4648E-08	2.4916E-06	8.7460E-08
-2.4326E-07	1.0280E-07	2.6259E-07	2.7059E-07
-2.1841E-07	2.8650E-08	8.8264E-07	1.9058E-07
-2.6450E-07	5.4207E-08	-5.0616E-07	6.8772E-07
-1.7217E-07	1.6942E-08	1.3853E-07	1.5051E-06
-1.7350E-07	8.8575E-08	5.9621E-07	2.1183E-06
-1.8080E-07	5.9822E-08	1.5165E-06	1.0542E-06
-1.8437E-07	5.7504E-09	6.9774E-07	1.5123E-06
-1.7298E-07	3.3887E-08	1.9536E-06	6.6589E-07
-1.8968E-07	-3.5322E-08	2.0163E-07	4.1169E-07
-2.0947E-07	1.9484E-08	8.7813E-07	1.0730E-06
-2.7080E-07	7.2275E-09	3.2500E-07	1.0353E-06
-2.7661E-07	2.4346E-08	1.0887E-06	1.1234E-06
-2.1070E-07	3.8576E-08	9.2254E-08	9.9159E-07
-2.3565E-07	4.3805E-08	1.0634E-06	1.9684E-06
-2.2640E-07	3.9250E-08	1.3499E-06	9.8550E-07
-2.4119E-07	7.7411E-08	9.3833E-07	8.0768E-07
-2.4533E-07	1.8629E-08	6.1335E-07	1.2976E-06
-2.2188E-07	3.8651E-08	1.3913E-06	1.1233E-06
-2.1059E-07	5.3493E-08	6.8381E-07	9.1849E-07
-2.5199E-07	5.0232E-08	1.3511E-06	1.0116E-06
-2.8053E-07	1.4018E-08	1.5010E-07	5.8556E-07
-2.4408E-07	8.1546E-08	1.0338E-06	2.1710E-06
-2.1285E-07	3.2531E-08	1.6597E-06	2.5635E-07
-2.2464E-07	6.9023E-08	-2.4654E-07	8.5045E-07
-2.7810E-07	1.0985E-07	6.9786E-07	1.9089E-06
-1.9694E-07	1.2872E-07	4.2271E-07	1.8965E-06
-1.8035E-07	9.3149E-08	2.3379E-06	3.3134E-06
-1.7993E-07	9.5126E-08	3.5159E-06	-2.0034E-07
-2.2136E-07	1.1721E-07	6.0025E-07	3.9658E-07
-2.0640E-07	1.2735E-07	2.5417E-06	3.6607E-07
-2.2992E-07	1.3897E-07	-1.3594E-07	-5.9272E-07
-2.1781E-07	8.9933E-08	1.1495E-06	1.8048E-06
-2.1551E-07	1.3197E-07	1.2218E-06	-1.2634E-07
-2.5429E-07	1.1972E-07	8.7200E-07	8.7658E-07
-2.3992E-07	1.2457E-07	5.0080E-07	-1.1339E-07
-1.8069E-07	1.3381E-07	2.8140E-07	1.7230E-06
-2.2940E-07	1.0744E-07	1.3315E-06	4.8124E-07
-2.3944E-07	1.4180E-07	4.2035E-07	1.5779E-06
-2.6482E-07	1.4789E-07	2.4698E-06	4.1168E-07
-2.2003E-07	2.2150E-07	-2.0698E-07	-6.9942E-07
-2.1481E-07	1.7083E-07	6.4512E-09	1.5862E-06
-1.8647E-07	1.8401E-07	9.5903E-07	7.8845E-07
-1.7445E-07	1.9483E-07	-9.9539E-08	8.0179E-07
-1.5659E-07	1.8037E-07	5.0547E-07	2.1972E-06
-1.7873E-07	1.0619E-07	1.6204E-06	1.0237E-06
-1.9489E-07	1.2361E-07	4.5248E-07	1.2175E-06
-1.8263E-07	1.4427E-07	1.8083E-06	1.2766E-06
-1.7826E-07	1.7159E-07	5.8322E-07	3.0152E-07
-1.5647E-07	1.7037E-07	1.0561E-06	1.5434E-06
-1.6778E-07	1.5653E-07	1.2419E-06	2.6073E-07
-1.9388E-07	1.7030E-07	2.3376E-07	6.1672E-07
-1.5223E-07	1.5831E-07	1.0037E-07	1.4120E-06
-1.5290E-07	1.8553E-07	1.2224E-06	1.8774E-06
-2.2786E-07	1.4769E-07	1.2643E-06	9.3684E-07
-1.8723E-07	1.8995E-07	1.4643E-06	8.8028E-07
-1.8428E-07	1.3596E-07	1.7649E-07	3.6068E-08
-1.9986E-07	1.3200E-07	3.7672E-07	2.2609E-06
-2.1843E-07	1.4593E-07	1.4976E-06	6.0055E-07
-2.3406E-07	1.4138E-07	4.9842E-09	1.6926E-06
-2.0743E-07	1.8733E-07	1.9381E-06	1.6455E-06
-2.4646E-07	1.4246E-07	9.9461E-07	7.2565E-07
-2.2704E-07	2.2745E-07	1.0652E-06	1.3230E-06
-1.7215E-07	1.9727E-07	1.4456E-06	1.4227E-06
-2.2059E-07	1.5975E-07	1.9372E-06	4.6721E-07
-1.4432E-07	2.0484E-07	7.8389E-07	2.3832E-07
-1.6254E-07	1.7476E-07	8.6811E-07	4.0006E-07
-1.7562E-07	1.7276E-07	-1.5656E-07	4.4273E-07
-2.1931E-07	1.6420E-07	-3.5688E-07	1.8140E-06
-1.4747E-07	1.6797E-07	1.1406E-06	3.0570E-06
-1.5891E-07	1.4667E-07	2.8839E-06	7.3341E-07
-2.0355E-07	1.3771E-07	-3.0782E-07	2.6955E-07
-1.7909E-07	1.5954E-07	1.1417E-06	3.0904E-06
-1.8092E-07	1.2800E-07	2.5726E-06	1.3234E-06
-1.8753E-07	1.4956E-07	2.3162E-06	8.7427E-07
-1.7598E-07	1.7938E-07	1.9202E-06	-2.8270E-07
-1.7205E-07	1.8740E-07	7.2500E-07	1.1319E-07
