jMRUI Data Textfile

Filename: Export_to_jmrui.txt

PointsInDataset: 2048
DatasetsInFile: 1
SamplingInterval: 0.250000
ZeroOrderPhase: 0E0
BeginTime: 0E0
TransmitterFrequency: 1.2326E8
MagneticField: 2.8936E0
TypeOfNucleus:  
NameOfPatient:  
DateOfExperiment:  
Spectrometer:  
AdditionalInfo: 
SignalNames:  


Signal and FFT
sig(real)	sig(imag)	fft(real)	fft(imag)
Signal 1 out of 1 in file
7.9883E-06	-4.2495E-06	-3.5007E-06	2.8460E-06
9.5853E-06	-8.7127E-06	-1.0511E-06	2.8392E-06
4.8236E-06	-9.5952E-06	-5.4514E-07	2.9014E-06
1.1112E-06	-9.3065E-06	3.2767E-07	1.5558E-06
-3.2337E-06	-6.8272E-06	-8.0274E-07	2.5548E-06
-5.0613E-06	-3.3504E-06	1.7157E-06	1.8742E-06
-5.1696E-06	3.5065E-07	-3.6847E-07	4.6068E-07
-2.6799E-06	2.4075E-06	-1.2988E-08	1.5769E-06
-7.5162E-08	2.6794E-06	-9.4094E-07	1.5608E-06
2.2443E-06	1.3114E-06	6.5960E-07	2.6550E-06
2.9806E-06	-4.7010E-07	-3.5477E-07	8.9605E-07
2.8266E-06	-2.1509E-06	-5.9044E-07	3.7967E-06
1.5402E-06	-2.8893E-06	2.2594E-06	2.9427E-06
2.3706E-07	-3.0387E-06	1.5647E-06	1.2807E-06
-1.1173E-06	-2.3459E-06	1.0524E-06	1.6848E-06
-1.5779E-06	-1.4539E-06	1.4010E-06	1.0322E-06
-1.7394E-06	-5.6286E-07	-4.2292E-07	1.5378E-06
-1.2894E-06	1.1157E-07	1.8145E-06	3.5408E-06
-9.6641E-07	4.2576E-07	2.6052E-06	3.3977E-07
-5.8454E-07	6.4116E-07	2.3694E-07	7.8846E-07
-5.7233E-07	7.8471E-07	4.8187E-07	1.6290E-06
-4.0345E-07	1.0033E-06	7.4494E-07	2.6964E-06
-2.1003E-07	1.2064E-06	2.8488E-06	1.7920E-06
1.8949E-07	1.1824E-06	9.4370E-07	-4.8899E-07
4.9031E-07	9.5063E-07	-1.0149E-06	1.9280E-06
8.3711E-07	3.7256E-07	9.7545E-07	3.3977E-06
7.8683E-07	-1.2676E-07	1.9589E-06	2.6316E-06
4.9938E-07	-5.3293E-07	2.2167E-06	1.8530E-06
-4.4520E-08	-5.2477E-07	1.4117E-06	1.8196E-06
-3.8920E-07	-1.1328E-07	2.4900E-06	2.3240E-06
-6.6090E-07	5.4696E-07	2.2745E-06	7.4882E-07
-4.7288E-07	1.2247E-06	1.3788E-06	1.2522E-06
-8.9317E-08	1.7022E-06	1.2272E-06	1.4021E-06
5.9110E-07	1.6611E-06	1.4980E-06	2.3230E-06
1.0422E-06	1.3609E-06	2.3402E-06	1.6750E-06
1.3234E-06	8.7186E-07	1.9352E-06	1.4342E-06
1.3105E-06	3.8629E-07	2.0230E-06	1.3108E-06
1.2234E-06	7.3447E-08	1.7629E-06	1.0599E-06
9.3462E-07	-2.5429E-08	1.2143E-06	1.3532E-06
9.0632E-07	-1.7727E-08	1.8651E-06	1.6505E-06
7.2293E-07	-1.0983E-07	8.6775E-07	9.4354E-07
6.9861E-07	-2.3000E-07	9.5348E-07	2.9662E-06
5.5832E-07	-4.2178E-07	2.1043E-06	2.2944E-06
3.3078E-07	-6.3096E-07	2.3330E-06	3.1815E-06
-1.5568E-07	-6.4028E-07	4.2138E-06	1.4080E-06
-4.7554E-07	-5.1184E-07	2.2054E-06	-2.2071E-08
-6.4325E-07	-6.0723E-08	1.1081E-06	8.9921E-07
-5.4451E-07	4.2094E-07	1.4167E-06	2.2549E-06
-2.3255E-07	8.5575E-07	2.4169E-06	1.6263E-06
1.7060E-07	8.5472E-07	1.9722E-06	1.6490E-06
4.9544E-07	5.9465E-07	1.9908E-06	1.0523E-06
6.5015E-07	1.9074E-07	1.0894E-06	2.3306E-06
3.7106E-07	-2.0312E-07	2.8079E-06	2.3526E-06
-6.4050E-08	-4.3965E-07	2.7274E-06	1.9913E-06
-5.7606E-07	-4.0995E-07	3.3482E-06	4.6615E-07
-8.8770E-07	5.1018E-08	7.6249E-07	9.0007E-07
-9.0623E-07	7.1225E-07	2.4910E-06	2.0514E-06
-5.6467E-07	1.0564E-06	1.4926E-06	9.4753E-07
-1.3691E-07	1.1379E-06	1.7580E-06	2.0575E-06
3.8859E-07	1.0281E-06	1.5825E-06	1.8502E-06
6.3978E-07	5.6400E-07	1.9832E-06	2.1413E-06
5.3528E-07	1.6675E-07	1.2026E-06	2.7762E-06
1.8760E-07	-4.8127E-08	3.6655E-06	3.7195E-06
-1.6555E-07	-6.5520E-08	3.7698E-06	1.3580E-06
-4.2381E-07	1.8963E-07	3.2234E-06	1.1662E-06
-4.5237E-07	5.7676E-07	1.9982E-06	1.0722E-06
-2.6327E-07	9.0724E-07	3.0539E-06	2.1816E-06
2.5450E-08	9.2243E-07	2.8514E-06	5.8709E-07
2.0188E-07	7.2590E-07	2.0784E-06	6.8044E-07
2.0674E-07	5.0994E-07	3.4974E-08	1.5837E-06
-1.2565E-08	3.7057E-07	2.8635E-06	4.6907E-06
-1.3051E-07	3.1427E-07	3.9921E-06	9.6278E-07
-3.2475E-07	4.7453E-07	2.4309E-06	2.2948E-06
-2.5910E-07	6.8204E-07	3.4910E-06	9.4401E-07
-1.1724E-07	8.8695E-07	1.7472E-06	1.9943E-06
2.2444E-07	9.2495E-07	3.6105E-06	2.0964E-06
3.7947E-07	7.6801E-07	2.8492E-06	1.2669E-06
4.4981E-07	5.1616E-07	2.7932E-06	1.4209E-06
3.1173E-07	2.7934E-07	2.5731E-06	1.9982E-06
7.1646E-08	1.6724E-07	3.8221E-06	1.5172E-06
-1.9851E-07	2.3920E-07	2.5995E-06	5.0313E-07
-3.1706E-07	4.5213E-07	2.4782E-06	1.5875E-06
-2.3120E-07	6.9774E-07	2.8428E-06	7.5543E-07
2.3318E-08	7.9374E-07	1.3995E-06	1.0336E-06
2.9228E-07	7.0094E-07	1.8815E-06	2.2518E-06
4.1575E-07	5.1650E-07	1.9476E-06	2.1228E-06
3.9078E-07	1.6289E-07	2.3509E-06	3.2434E-06
1.2721E-07	-1.4838E-07	3.8077E-06	2.9432E-06
-1.5856E-07	-1.6110E-07	4.4038E-06	1.6813E-06
-4.3923E-07	-6.2796E-09	3.1056E-06	3.5849E-07
-6.0034E-07	3.0033E-07	1.9517E-06	1.7715E-06
-4.6228E-07	6.8727E-07	2.9992E-06	2.4106E-06
-2.1090E-07	9.1426E-07	3.4847E-06	1.9070E-06
1.8505E-07	8.9556E-07	3.0094E-06	1.5697E-06
4.0306E-07	6.9140E-07	3.3404E-06	2.3124E-06
5.3154E-07	4.1863E-07	3.8279E-06	1.3227E-06
3.4723E-07	1.2661E-07	2.9721E-06	1.6987E-06
1.4312E-07	-4.0793E-08	4.1217E-06	1.8975E-06
-2.0673E-07	-8.7399E-08	3.8968E-06	5.4999E-07
-4.1195E-07	-8.3448E-09	2.9021E-06	9.2759E-07
-5.2392E-07	1.8438E-07	3.4874E-06	1.2557E-06
-4.6529E-07	3.9474E-07	3.2839E-06	6.1354E-07
-4.1710E-07	5.2605E-07	3.0795E-06	8.1486E-07
-3.7732E-07	5.1958E-07	3.1112E-06	2.4500E-07
-3.2380E-07	5.0741E-07	1.5977E-06	-1.9099E-07
-3.1879E-07	4.6820E-07	5.4887E-07	2.4871E-06
-2.9840E-07	5.9218E-07	3.9156E-06	3.0970E-06
-2.3022E-07	7.2656E-07	3.1813E-06	8.4449E-07
-1.3729E-07	7.2063E-07	3.6205E-06	1.8797E-06
3.7743E-08	7.3053E-07	3.1768E-06	-3.8373E-07
1.8681E-07	5.6243E-07	1.6174E-06	1.2355E-06
2.2270E-07	3.8697E-07	2.2601E-06	1.1058E-06
5.5114E-08	2.7419E-07	1.9150E-06	2.2160E-06
-1.0067E-07	1.6406E-07	3.1167E-06	1.4575E-06
-3.2739E-07	2.5203E-07	1.9274E-06	1.5695E-06
-4.7443E-07	4.2143E-07	2.6615E-06	2.0333E-06
-4.4835E-07	5.2901E-07	2.5197E-06	1.7098E-06
-3.0777E-07	7.6573E-07	2.1910E-06	1.8776E-06
-1.1958E-07	7.7732E-07	2.6191E-06	2.8138E-06
1.5122E-07	6.7034E-07	3.3656E-06	1.8320E-06
2.8045E-07	5.5649E-07	2.4973E-06	2.2672E-06
2.2324E-07	2.7832E-07	3.4986E-06	2.3539E-06
7.0923E-08	1.2004E-07	3.3592E-06	2.1774E-06
-1.3642E-07	1.1516E-07	4.2259E-06	1.6131E-06
-3.2619E-07	1.9141E-07	3.1030E-06	5.5545E-07
-3.8120E-07	3.9282E-07	2.3161E-06	1.4212E-06
-3.2558E-07	5.1532E-07	2.7131E-06	2.1373E-06
-2.0397E-07	6.8620E-07	3.5250E-06	1.8797E-06
-8.2043E-08	6.9700E-07	3.3452E-06	9.0044E-07
1.9356E-08	5.9800E-07	2.0809E-06	8.9464E-07
1.3413E-07	4.5323E-07	2.0001E-06	2.1313E-06
1.4219E-08	4.0228E-07	2.5467E-06	2.3633E-06
-5.5960E-08	3.3332E-07	3.3184E-06	2.3330E-06
-1.0484E-07	3.2225E-07	2.6483E-06	1.2751E-06
-1.6225E-07	3.9853E-07	2.3911E-06	2.9066E-06
-9.0186E-08	3.9621E-07	3.6332E-06	2.0495E-06
-1.5199E-08	3.9635E-07	2.9378E-06	2.2200E-06
5.7500E-08	3.0515E-07	3.5477E-06	1.7418E-06
5.6285E-08	2.2623E-07	2.8244E-06	2.0349E-06
-1.3827E-08	1.9180E-07	3.5461E-06	1.5993E-06
-1.8202E-07	1.7052E-07	2.2708E-06	1.7618E-06
-2.7205E-07	1.7132E-07	3.2840E-06	2.5996E-06
-4.0932E-07	3.8172E-07	3.5310E-06	1.5811E-06
-3.5713E-07	4.5509E-07	2.3046E-06	1.4299E-06
-2.8200E-07	5.4304E-07	2.9426E-06	3.4158E-06
-1.2463E-07	5.7578E-07	4.5927E-06	9.2385E-07
-1.7807E-08	5.1282E-07	1.2554E-06	1.4106E-06
3.5298E-08	3.6583E-07	3.5307E-06	3.1052E-06
-9.0415E-09	2.7070E-07	2.9226E-06	1.3198E-06
-6.4965E-08	1.7742E-07	2.5757E-06	2.3546E-06
-1.2947E-07	2.0711E-07	2.6611E-06	2.6337E-06
-2.2833E-07	2.5582E-07	3.8900E-06	2.6201E-06
-2.6279E-07	3.5697E-07	2.8364E-06	1.3949E-06
-2.5562E-07	4.5963E-07	2.7128E-06	2.9749E-06
-1.8018E-07	4.8076E-07	3.9701E-06	2.3882E-06
-1.0234E-07	5.0613E-07	3.3686E-06	1.0635E-06
-6.7818E-08	5.2891E-07	1.3961E-06	1.9598E-06
6.2683E-08	4.1398E-07	2.8430E-06	3.8914E-06
6.9714E-08	3.7325E-07	3.6442E-06	2.6479E-06
-1.9092E-08	3.2253E-07	3.2442E-06	3.0218E-06
-1.9528E-08	2.9042E-07	4.2513E-06	3.0616E-06
-4.3266E-08	2.5407E-07	4.3951E-06	1.6258E-06
-1.3139E-07	2.4593E-07	2.9995E-06	1.9866E-06
-1.5555E-07	3.1865E-07	4.3608E-06	2.1905E-06
-1.8123E-07	3.3206E-07	3.1211E-06	5.9611E-07
-2.2637E-07	3.7987E-07	2.0281E-06	1.5232E-06
-1.7665E-07	4.2268E-07	8.9880E-07	2.8636E-06
-1.6412E-07	4.7326E-07	3.4189E-06	5.3037E-06
-7.0531E-08	5.3278E-07	5.0478E-06	2.4090E-06
1.7964E-08	4.8737E-07	3.2692E-06	2.0616E-06
1.4114E-08	4.1484E-07	2.8875E-06	3.0407E-06
1.1673E-07	3.5049E-07	4.9039E-06	3.9242E-06
-7.7221E-10	2.9663E-07	5.0556E-06	2.0181E-07
7.2449E-08	2.7712E-07	9.8684E-07	1.7064E-06
-7.1334E-10	1.6629E-07	3.5703E-06	4.5978E-06
-4.6172E-08	1.9863E-07	4.8452E-06	1.8155E-06
-1.2798E-07	2.1244E-07	2.2289E-06	2.2404E-06
-4.3870E-08	2.5611E-07	4.4141E-06	3.9266E-06
-5.9996E-08	2.9164E-07	3.8752E-06	9.4304E-07
2.8811E-09	2.8432E-07	2.0520E-06	3.7806E-06
-7.3561E-09	2.6281E-07	5.3239E-06	3.3980E-06
1.8988E-08	2.6116E-07	3.6670E-06	1.4925E-06
-2.8591E-08	1.8343E-07	3.0698E-06	2.9211E-06
-7.9359E-08	2.3487E-07	3.7745E-06	3.1362E-06
-1.1274E-07	2.2874E-07	3.7179E-06	2.9717E-06
-1.7303E-07	2.6313E-07	3.9961E-06	3.6099E-06
-1.8843E-07	2.6639E-07	4.8240E-06	3.3523E-06
-1.2051E-07	3.0576E-07	5.6590E-06	2.8200E-06
-8.1993E-08	3.2922E-07	4.8928E-06	5.6510E-07
-7.7957E-08	3.2553E-07	2.5710E-06	2.2564E-06
-1.2431E-07	3.3524E-07	4.4869E-06	3.1920E-06
-1.0412E-07	3.2679E-07	4.4928E-06	2.4608E-06
-1.1465E-07	3.4259E-07	5.0064E-06	1.8365E-06
-1.0620E-07	3.0944E-07	3.6088E-06	1.3588E-06
-1.4981E-07	3.5901E-07	3.6691E-06	2.0607E-06
-9.6625E-08	3.4424E-07	2.9012E-06	2.4658E-06
-8.7665E-09	3.7848E-07	4.5055E-06	3.6209E-06
-4.5911E-08	3.0299E-07	4.7302E-06	1.6244E-06
-7.5327E-08	2.7451E-07	3.5056E-06	2.2369E-06
2.7756E-08	3.4876E-07	4.1310E-06	2.7199E-06
-9.6141E-08	2.4300E-07	4.6795E-06	2.1675E-06
-1.7408E-08	2.9983E-07	3.6539E-06	1.3351E-06
-9.4046E-08	2.9998E-07	3.0407E-06	2.8705E-06
-5.9748E-08	3.0104E-07	4.4245E-06	2.9841E-06
-7.1047E-08	3.7151E-07	4.3533E-06	2.2187E-06
-3.2317E-08	3.1003E-07	3.9853E-06	2.1141E-06
-9.6441E-08	3.0235E-07	3.7561E-06	2.5099E-06
-3.4495E-08	2.4463E-07	4.1760E-06	2.5247E-06
