jMRUI Data Textfile

Filename: Export_to_jmrui.txt

PointsInDataset: 2048
DatasetsInFile: 1
SamplingInterval: 0.250000
ZeroOrderPhase: 0E0
BeginTime: 0E0
TransmitterFrequency: 1.2326E8
MagneticField: 2.8936E0
TypeOfNucleus:  
NameOfPatient:  
DateOfExperiment:  
Spectrometer:  
AdditionalInfo: 
SignalNames:  


Signal and FFT
sig(real)	sig(imag)	fft(real)	fft(imag)
Signal 1 out of 1 in file
8.0673E-06	2.4342E-06	1.7431E-06	2.6339E-06
8.5637E-06	-2.0481E-06	2.8194E-06	4.2524E-06
6.4771E-06	-5.9345E-06	5.1534E-06	3.6411E-06
2.6150E-06	-7.9032E-06	4.8639E-06	1.7834E-06
-1.4740E-06	-7.6151E-06	3.6541E-06	1.5120E-06
-4.2889E-06	-5.1370E-06	3.2735E-06	2.9946E-06
-5.4296E-06	-1.9148E-06	5.3914E-06	2.5644E-06
-4.3729E-06	1.0811E-06	4.0312E-06	6.5120E-07
-2.4790E-06	2.6946E-06	3.0911E-06	2.2273E-06
-6.5655E-08	2.7659E-06	4.5319E-06	2.3941E-06
1.5226E-06	1.6940E-06	4.2983E-06	9.7481E-07
2.1242E-06	1.2268E-07	3.4657E-06	1.7688E-06
1.7023E-06	-1.2878E-06	4.8001E-06	9.0774E-07
7.5692E-07	-2.0911E-06	2.3681E-06	-2.0365E-07
-3.3377E-07	-2.1156E-06	2.0541E-06	2.0740E-06
-1.1355E-06	-1.7063E-06	3.0221E-06	2.0414E-06
-1.5027E-06	-1.1813E-06	3.1902E-06	1.5324E-06
-1.6024E-06	-6.2107E-07	2.0332E-06	1.6857E-06
-1.4945E-06	-2.9456E-07	3.2521E-06	2.6378E-06
-1.5157E-06	-1.2184E-08	2.1660E-06	1.1136E-06
-1.4626E-06	2.7933E-07	2.2148E-06	4.2363E-06
-1.3712E-06	6.3860E-07	5.1818E-06	2.0492E-06
-1.1195E-06	1.0829E-06	2.6647E-06	9.2978E-07
-6.8427E-07	1.3492E-06	2.6832E-06	1.6453E-06
-1.0381E-07	1.3343E-06	1.6956E-06	2.2702E-06
4.2104E-07	1.0559E-06	3.3995E-06	2.9073E-06
7.1897E-07	5.9294E-07	2.2739E-06	1.3368E-06
5.9249E-07	-1.5912E-08	1.9481E-06	3.5321E-06
2.6379E-07	-3.0650E-07	3.6880E-06	2.8085E-06
-3.0528E-07	-4.2314E-07	2.7717E-06	1.9876E-06
-7.1618E-07	-9.8808E-08	2.2371E-06	2.7484E-06
-9.4034E-07	3.7019E-07	3.0946E-06	3.4583E-06
-7.8978E-07	9.0372E-07	3.8409E-06	2.3056E-06
-3.9137E-07	1.2772E-06	2.3904E-06	1.6441E-06
1.1037E-07	1.4351E-06	1.7784E-06	3.5309E-06
6.0089E-07	1.2321E-06	4.1727E-06	3.7881E-06
9.9903E-07	9.7090E-07	3.6926E-06	1.4190E-06
1.0855E-06	6.1129E-07	2.1005E-06	2.1872E-06
1.1443E-06	3.2542E-07	2.1637E-06	3.0763E-06
1.0354E-06	3.6673E-08	3.1245E-06	3.7791E-06
1.0329E-06	-1.8696E-07	3.5203E-06	2.6667E-06
9.1364E-07	-4.4221E-07	3.1987E-06	3.1172E-06
8.2421E-07	-6.1313E-07	3.7296E-06	2.1973E-06
5.0210E-07	-8.6620E-07	2.4152E-06	2.1803E-06
2.5063E-07	-9.4066E-07	2.3406E-06	3.1738E-06
-1.2239E-07	-8.1938E-07	3.5776E-06	3.6078E-06
-2.9660E-07	-5.4954E-07	3.2252E-06	1.6147E-06
-4.3821E-07	-2.3747E-07	1.4532E-06	3.6773E-06
-2.7762E-07	5.2847E-08	4.0391E-06	4.0948E-06
-1.3262E-08	1.6565E-07	3.7715E-06	2.8613E-06
2.2796E-07	5.8717E-08	3.8096E-06	2.4278E-06
4.1905E-07	-2.1387E-07	3.0809E-06	2.6099E-06
3.4697E-07	-5.0347E-07	3.6233E-06	1.9939E-06
7.6238E-08	-7.2180E-07	1.7641E-06	2.5511E-06
-2.5914E-07	-7.1508E-07	3.9344E-06	3.4509E-06
-6.5303E-07	-5.8981E-07	2.6352E-06	1.0147E-06
-7.0592E-07	-1.9828E-07	1.0908E-06	3.1746E-06
-7.1275E-07	1.6447E-07	2.3964E-06	4.2203E-06
-3.8490E-07	4.4252E-07	3.6375E-06	3.5766E-06
-8.1839E-08	4.2442E-07	2.4386E-06	2.3789E-06
1.5069E-07	2.7789E-07	1.7907E-06	4.3744E-06
2.7379E-07	-4.1259E-08	3.7602E-06	4.4639E-06
2.1323E-07	-2.7603E-07	3.2608E-06	3.2306E-06
-5.0879E-08	-3.7244E-07	2.9153E-06	4.7103E-06
-2.5993E-07	-3.5319E-07	5.3946E-06	4.3255E-06
-4.9601E-07	-2.2163E-07	4.5521E-06	1.5327E-06
-4.5981E-07	1.1684E-07	2.1538E-06	2.7490E-06
-4.2079E-07	2.8639E-07	3.9770E-06	4.3063E-06
-1.7809E-07	3.0782E-07	4.1601E-06	2.1434E-06
-7.1600E-08	2.2742E-07	3.1245E-06	3.4541E-06
-3.0337E-10	1.1311E-07	4.6892E-06	2.0101E-06
-3.4070E-08	6.1014E-08	1.5953E-06	1.9385E-06
-1.0928E-07	6.2641E-08	3.1228E-06	4.2365E-06
-1.5715E-07	1.0266E-07	3.4761E-06	2.7932E-06
-1.7851E-07	3.1314E-07	3.2853E-06	3.1372E-06
-4.7792E-08	3.7849E-07	2.7641E-06	2.7073E-06
1.4366E-07	3.1156E-07	2.8612E-06	4.1932E-06
2.6214E-07	2.2380E-07	4.6835E-06	3.2018E-06
2.6489E-07	6.0079E-08	2.8971E-06	1.3499E-06
1.1328E-07	-6.7564E-08	1.3778E-06	3.6203E-06
-2.6317E-08	-3.4386E-08	3.1155E-06	4.2646E-06
-1.9535E-07	1.4266E-07	3.1728E-06	4.1715E-06
-1.6146E-07	2.7479E-07	4.3083E-06	3.5758E-06
-3.2705E-08	4.3911E-07	2.8384E-06	2.8689E-06
2.2072E-07	4.6133E-07	3.1340E-06	4.2913E-06
4.5172E-07	3.3765E-07	4.0017E-06	4.0614E-06
5.9364E-07	5.6946E-08	4.3476E-06	3.1059E-06
4.9586E-07	-1.7298E-07	3.1034E-06	3.1771E-06
3.0617E-07	-4.4623E-07	3.9727E-06	3.6919E-06
2.4015E-08	-4.3532E-07	3.2632E-06	3.5118E-06
-2.1559E-07	-3.2904E-07	5.0175E-06	4.3980E-06
-2.7518E-07	-3.3541E-08	5.3017E-06	1.5628E-06
-2.1111E-07	1.8017E-07	2.7631E-06	1.0450E-06
-2.5797E-08	3.5472E-07	1.3603E-06	3.3929E-06
1.9857E-07	3.5957E-07	4.0257E-06	4.3662E-06
4.1962E-07	1.9348E-07	2.9285E-06	2.3217E-06
5.2141E-07	-4.9850E-08	2.9049E-06	4.9737E-06
3.7244E-07	-3.0718E-07	5.1265E-06	3.2290E-06
2.2461E-07	-4.5713E-07	3.1544E-06	2.4079E-06
6.4800E-08	-6.1720E-07	3.2226E-06	3.7352E-06
-8.3167E-08	-5.2715E-07	4.1023E-06	3.3998E-06
-1.4507E-07	-3.6828E-07	3.6792E-06	2.6613E-06
-2.7038E-07	-2.6098E-07	2.9247E-06	3.0805E-06
-2.6316E-07	-1.3102E-07	3.4356E-06	3.9959E-06
-3.1947E-07	-2.0063E-08	4.1285E-06	3.1485E-06
-3.1999E-07	5.5817E-08	3.3934E-06	3.5423E-06
-3.0417E-07	6.7545E-08	4.8304E-06	3.0411E-06
-2.0353E-07	1.0426E-07	2.8940E-06	1.9566E-06
-1.7105E-07	1.4040E-07	3.0959E-06	4.0346E-06
8.2184E-09	2.3297E-07	4.3541E-06	3.3107E-06
1.0776E-07	1.3748E-07	4.0844E-06	2.3527E-06
2.0191E-07	4.0274E-08	3.0519E-06	2.4408E-06
1.9311E-07	-5.1532E-08	3.2760E-06	2.4995E-06
1.2173E-07	-7.8448E-08	1.6597E-06	3.1075E-06
-7.1811E-08	-1.9600E-07	3.9110E-06	5.0260E-06
-2.0472E-07	-1.5618E-07	4.3953E-06	2.2072E-06
-2.8182E-07	-2.0103E-08	2.6408E-06	2.8569E-06
-2.5041E-07	1.3553E-07	3.0101E-06	3.5587E-06
-1.4265E-07	1.9995E-07	3.6497E-06	3.7093E-06
1.5794E-08	2.5282E-07	3.7620E-06	3.0950E-06
1.2431E-07	1.9875E-07	3.6354E-06	2.6668E-06
1.4789E-07	1.0237E-07	2.2493E-06	2.9664E-06
1.3508E-07	8.5439E-09	3.8436E-06	4.4936E-06
7.4887E-08	-1.4724E-07	3.9383E-06	1.8747E-06
-2.5890E-08	-1.3784E-07	1.6038E-06	3.4626E-06
-1.5364E-07	-6.7869E-08	3.8761E-06	4.8852E-06
-1.3477E-07	4.5661E-08	4.4101E-06	2.6390E-06
-7.2626E-08	1.6100E-07	2.6365E-06	3.3566E-06
-1.1405E-08	1.6437E-07	4.7530E-06	3.7062E-06
9.0927E-08	1.4789E-07	3.2044E-06	1.2929E-06
8.2908E-08	4.9398E-08	1.6820E-06	3.5841E-06
1.0950E-07	8.1535E-09	3.3529E-06	4.5799E-06
2.2649E-08	-1.7994E-08	4.7477E-06	3.2281E-06
3.9255E-08	-2.6049E-09	2.8674E-06	1.7737E-06
4.9013E-08	2.0402E-08	2.1377E-06	3.5869E-06
8.4783E-08	3.1534E-08	2.9113E-06	4.1336E-06
1.3755E-07	6.8767E-08	4.1998E-06	3.6258E-06
1.7648E-07	-3.7231E-08	2.5762E-06	2.1884E-06
1.6622E-07	-7.5611E-08	2.0294E-06	4.4306E-06
1.4129E-07	-1.6435E-07	3.4852E-06	4.7406E-06
5.9667E-08	-2.2225E-07	4.6689E-06	3.6617E-06
-3.7298E-08	-1.3366E-07	2.6023E-06	2.7018E-06
-1.7169E-07	-1.9637E-07	3.9804E-06	4.9830E-06
-2.1991E-07	-4.6138E-08	4.1667E-06	1.6608E-06
-1.9344E-07	3.7496E-08	1.5420E-06	3.7842E-06
-8.4784E-08	1.7061E-07	3.7886E-06	4.4343E-06
-3.3394E-08	1.1428E-07	3.3131E-06	3.2396E-06
1.4929E-07	7.6276E-08	2.3433E-06	4.5231E-06
1.2664E-07	4.5915E-08	5.0955E-06	5.4607E-06
1.0787E-07	-3.6338E-08	4.8286E-06	2.0706E-06
-1.6020E-08	-1.3434E-07	3.0064E-06	3.5503E-06
-3.1143E-08	-1.0043E-07	4.0536E-06	3.5726E-06
-1.1871E-07	-6.1150E-08	4.5131E-06	3.3129E-06
-9.8420E-08	-2.9330E-08	3.2250E-06	1.4294E-06
-1.1129E-07	2.8619E-08	1.7175E-06	4.6308E-06
-7.5476E-08	1.5080E-07	5.1782E-06	4.3880E-06
-3.6037E-08	1.1655E-07	4.3153E-06	2.2800E-06
-7.8576E-09	1.1217E-07	3.2139E-06	2.5715E-06
6.7255E-08	7.9986E-08	3.6325E-06	3.2347E-06
6.8649E-08	-1.4777E-08	3.3772E-06	2.2033E-06
4.6249E-08	-4.0179E-08	3.1594E-06	3.1063E-06
2.0798E-08	-7.3004E-08	2.9313E-06	1.4670E-06
3.4901E-08	-3.2115E-08	8.3601E-07	3.4389E-06
-8.4742E-09	-2.6778E-08	2.5518E-06	4.2246E-06
-2.8427E-08	-4.0750E-08	2.3359E-06	4.5529E-06
-7.0482E-08	2.2014E-08	3.9270E-06	4.7380E-06
-1.3177E-07	3.6694E-08	4.3108E-06	3.1707E-06
-1.1711E-07	6.4801E-08	2.1931E-06	2.3884E-06
-8.2304E-08	9.1330E-08	2.4210E-06	5.7622E-06
6.5055E-09	1.3447E-07	5.5798E-06	3.4827E-06
4.0521E-08	1.6468E-07	2.8861E-06	2.4089E-06
1.1103E-07	9.5320E-08	3.2795E-06	3.0966E-06
1.4085E-07	6.0648E-08	2.0817E-06	3.2779E-06
1.0549E-07	1.8289E-08	3.3107E-06	4.2645E-06
6.6865E-08	-2.5754E-08	3.0510E-06	3.0301E-06
6.7988E-08	-4.9445E-08	2.2699E-06	4.0113E-06
5.9687E-08	-3.4131E-08	3.6260E-06	4.4433E-06
6.6808E-08	1.3572E-08	3.0372E-06	2.7746E-06
5.5110E-08	-2.4287E-08	1.9837E-06	4.9989E-06
8.1922E-08	4.9657E-08	4.6721E-06	4.4545E-06
4.7747E-08	-3.7471E-08	3.2975E-06	3.1521E-06
7.8391E-08	-2.2412E-08	3.3038E-06	3.6022E-06
7.9454E-08	-5.0456E-08	2.5113E-06	3.9863E-06
2.9659E-08	-1.2269E-07	3.8641E-06	4.8473E-06
-4.2850E-08	-1.0468E-07	4.2936E-06	3.7747E-06
-1.4261E-08	-8.7415E-08	4.5643E-06	3.0432E-06
-1.4949E-08	-8.7378E-08	3.1278E-06	1.7102E-06
-7.7533E-08	-4.9839E-08	1.4779E-06	3.3496E-06
-8.0336E-08	-6.2579E-08	2.9380E-06	4.7347E-06
-7.7227E-08	-5.7250E-08	3.4046E-06	3.4993E-06
-1.0413E-07	-4.6188E-08	2.8360E-06	4.1771E-06
-1.4316E-07	-1.2056E-08	3.7434E-06	3.7290E-06
-5.2582E-08	1.7586E-08	3.1477E-06	3.5257E-06
-7.9116E-08	-1.3164E-08	2.8885E-06	3.1470E-06
-8.4596E-08	6.3267E-08	2.2795E-06	4.9361E-06
-1.8745E-08	2.6115E-08	5.0410E-06	3.8349E-06
1.8769E-08	1.5118E-08	2.2872E-06	2.6291E-06
9.4381E-09	-2.8061E-08	3.7098E-06	4.3298E-06
-1.2135E-08	-2.6054E-08	2.5183E-06	2.4024E-06
-4.4677E-08	3.4311E-08	2.6564E-06	4.8407E-06
6.1163E-09	1.7620E-08	3.4541E-06	2.9157E-06
-3.0046E-08	-1.0143E-08	2.1359E-06	4.1119E-06
-4.5502E-08	3.3302E-08	3.1836E-06	3.5794E-06
5.8263E-09	4.1130E-08	1.7821E-06	4.0602E-06
-9.1698E-09	2.0833E-08	2.8833E-06	5.1352E-06
1.0357E-09	2.5823E-08	3.8752E-06	4.7307E-06
5.5504E-08	7.8480E-09	4.0015E-06	3.0419E-06
3.8809E-09	1.9037E-08	1.8693E-06	3.2280E-06
