jMRUI Data Textfile

Filename: Export_to_jmrui.txt

PointsInDataset: 2048
DatasetsInFile: 1
SamplingInterval: 0.250000
ZeroOrderPhase: 0E0
BeginTime: 0E0
TransmitterFrequency: 1.2326E8
MagneticField: 2.8936E0
TypeOfNucleus:  
NameOfPatient:  
DateOfExperiment:  
Spectrometer:  
AdditionalInfo: 
SignalNames:  


Signal and FFT
sig(real)	sig(imag)	fft(real)	fft(imag)
Signal 1 out of 1 in file
8.1302E-06	-6.0964E-08	1.9843E-06	2.2493E-08
6.6302E-06	-1.9892E-06	2.2117E-06	-7.3219E-07
4.4646E-06	-3.7640E-06	4.6552E-07	-1.9453E-07
2.4635E-06	-4.4601E-06	9.6460E-07	2.2795E-06
-2.7238E-07	-4.2255E-06	3.3667E-06	1.9197E-06
-2.0073E-06	-2.7687E-06	2.4452E-06	7.3352E-07
-2.9031E-06	-8.3712E-07	3.1507E-06	1.9771E-06
-2.1061E-06	7.4376E-07	3.2473E-06	3.1742E-07
-8.5136E-07	1.5091E-06	2.7146E-06	1.6359E-06
6.9920E-07	1.3850E-06	3.3142E-06	2.6410E-07
1.4176E-06	5.9420E-07	1.7475E-06	2.1943E-06
1.6826E-06	-3.6957E-07	4.9667E-06	2.0442E-06
1.2126E-06	-1.0880E-06	3.5706E-06	9.0968E-08
6.1834E-07	-1.3941E-06	3.2346E-06	9.9575E-07
-2.7955E-07	-1.2641E-06	3.5526E-06	1.3466E-06
-7.1461E-07	-8.7156E-07	4.4135E-06	2.2017E-07
-8.5249E-07	-4.5999E-07	2.3941E-06	1.1368E-07
-6.5847E-07	-1.3874E-07	3.5803E-06	1.2771E-06
-5.6680E-07	9.7330E-08	2.9582E-06	-9.0155E-08
-5.3804E-07	1.5035E-07	2.1416E-06	1.1678E-06
-6.5839E-07	2.0488E-07	2.8972E-06	2.1208E-06
-7.0665E-07	4.2242E-07	4.3804E-06	1.4231E-06
-7.9514E-07	5.2738E-07	3.2670E-06	3.0204E-07
-5.4129E-07	8.1206E-07	2.9183E-06	8.5870E-07
-3.0480E-07	8.4856E-07	2.1185E-06	1.7557E-06
7.5369E-08	6.9179E-07	4.6823E-06	2.6100E-06
2.8751E-07	4.4097E-07	3.7015E-06	-3.7874E-07
2.9414E-07	1.3212E-07	2.5612E-06	1.9918E-06
1.1803E-07	-4.6523E-08	3.9202E-06	9.9304E-07
-1.9431E-07	-7.7330E-08	2.7130E-06	1.6634E-06
-5.2593E-07	1.8609E-07	3.6721E-06	1.6401E-06
-6.6777E-07	5.7049E-07	3.1184E-06	2.4052E-06
-6.0620E-07	9.3858E-07	5.2508E-06	2.0951E-06
-3.1319E-07	1.0875E-06	4.1094E-06	5.7792E-07
1.0995E-07	1.0858E-06	4.0799E-06	1.1807E-06
3.8956E-07	9.3478E-07	3.3151E-06	9.3489E-07
5.4231E-07	6.1899E-07	4.3481E-06	2.2605E-06
5.7616E-07	4.0894E-07	4.7402E-06	1.9200E-08
4.4794E-07	2.3335E-07	2.8325E-06	1.0581E-06
3.5596E-07	2.8375E-07	4.3696E-06	1.3730E-06
3.0194E-07	2.1780E-07	3.2078E-06	6.1255E-07
3.1514E-07	1.4453E-07	3.7573E-06	2.3697E-06
3.1734E-07	1.2532E-08	5.5552E-06	6.6811E-07
3.1669E-07	-2.2408E-07	2.9886E-06	-1.0205E-06
2.1430E-07	-3.2233E-07	1.7751E-06	2.0408E-06
-4.3161E-08	-3.2968E-07	4.6726E-06	2.2228E-06
-2.7876E-07	-2.0669E-07	3.8529E-06	1.0908E-07
-3.6912E-07	4.0619E-08	2.5767E-06	1.0288E-06
-3.5706E-07	1.7748E-07	2.5766E-06	1.8575E-06
-1.1443E-07	4.1063E-07	3.2726E-06	3.0434E-06
-3.3793E-08	4.2182E-07	5.0377E-06	2.3103E-06
8.3469E-08	2.1368E-07	4.0795E-06	1.0065E-06
1.2973E-07	-9.9549E-09	4.1577E-06	2.0795E-06
4.7967E-08	-1.4123E-07	4.6500E-06	4.0803E-07
-2.3708E-07	-2.6110E-07	2.1827E-06	1.0597E-06
-4.9883E-07	-7.1213E-08	3.4305E-06	3.0772E-06
-6.1165E-07	6.9242E-08	4.4032E-06	2.4482E-06
-5.1392E-07	4.2127E-07	4.7337E-06	2.0641E-06
-2.8741E-07	5.8706E-07	4.1866E-06	1.7076E-06
-3.5638E-08	5.4670E-07	4.5962E-06	2.5881E-06
1.0824E-07	2.8594E-07	5.4131E-06	1.9453E-06
1.6996E-07	7.7633E-08	5.7069E-06	1.5557E-06
3.0939E-09	-1.6169E-07	5.7232E-06	-1.9475E-08
-2.3039E-07	-1.8855E-07	3.6745E-06	-1.2832E-07
-4.6648E-07	-6.9785E-08	3.7932E-06	1.3084E-06
-5.1967E-07	1.6556E-07	4.0670E-06	9.6250E-07
-5.1346E-07	4.9089E-07	3.9577E-06	1.7383E-06
-3.1172E-07	6.3668E-07	5.2704E-06	1.0416E-06
-1.7369E-07	6.3833E-07	3.7121E-06	-2.7396E-07
-1.0728E-08	4.6253E-07	2.6066E-06	1.5739E-06
-7.0677E-08	2.5943E-07	4.1281E-06	2.5851E-06
-1.8581E-07	1.4008E-07	5.0986E-06	1.5620E-06
-3.3350E-07	1.2730E-07	4.5371E-06	9.1300E-07
-3.7527E-07	2.2372E-07	4.5120E-06	7.9294E-07
-3.6631E-07	3.8760E-07	3.4087E-06	4.3013E-07
-2.2431E-07	4.8778E-07	3.4063E-06	2.1792E-06
-7.6350E-08	5.5003E-07	4.6376E-06	1.4186E-06
4.6590E-08	4.5879E-07	3.8434E-06	1.6749E-06
7.4646E-08	3.3843E-07	5.0546E-06	1.1463E-06
-5.3208E-09	1.5905E-07	2.8411E-06	8.2398E-07
-1.7845E-07	2.1422E-07	4.5709E-06	3.3131E-06
-2.7826E-07	2.0458E-07	5.5994E-06	5.8287E-07
-3.5734E-07	3.4943E-07	3.9907E-06	1.0291E-06
-1.8487E-07	4.9946E-07	4.4129E-06	8.9078E-07
-5.7966E-08	4.8096E-07	3.8660E-06	1.2562E-06
1.6273E-07	4.1755E-07	4.1556E-06	1.1807E-06
1.9763E-07	1.6226E-07	4.2056E-06	1.6344E-06
1.8524E-07	-2.7764E-08	4.4333E-06	5.9434E-07
-1.0410E-09	-1.8666E-07	3.4442E-06	1.6605E-06
-2.0236E-07	-1.5066E-07	4.8971E-06	8.1535E-07
-3.8791E-07	-1.0287E-07	2.4549E-06	8.1787E-07
-4.4077E-07	1.7073E-07	3.8991E-06	2.5903E-06
-4.1244E-07	4.4616E-07	3.5678E-06	1.7003E-06
-1.8717E-07	5.8519E-07	4.3938E-06	3.2658E-06
-1.1305E-08	4.7538E-07	5.7631E-06	1.8239E-06
1.6622E-07	3.5046E-07	5.1530E-06	7.8056E-07
2.6246E-07	1.6775E-07	3.8794E-06	7.8554E-07
1.8876E-07	-7.5803E-08	4.4201E-06	2.1253E-06
3.1640E-09	-2.1746E-07	5.1636E-06	8.0465E-07
-1.4887E-07	-2.3296E-07	3.7103E-06	7.5794E-07
-3.0088E-07	-1.8107E-07	3.9283E-06	2.0941E-06
-3.3590E-07	7.5105E-08	5.5654E-06	1.8328E-06
-3.9746E-07	5.6733E-08	5.2933E-06	-2.6993E-07
-3.2296E-07	1.8915E-07	3.3119E-06	-3.5879E-07
-3.0801E-07	1.4011E-07	2.3288E-06	6.5877E-07
-2.9290E-07	1.4011E-07	2.0145E-06	2.5301E-06
-3.4794E-07	1.3215E-07	4.0760E-06	3.6742E-06
-3.3666E-07	1.0154E-07	4.8424E-06	2.3476E-06
-3.0904E-07	2.5564E-07	4.9411E-06	2.8913E-06
-2.5494E-07	2.6382E-07	6.2849E-06	1.3086E-06
-1.2662E-07	3.4546E-07	4.0949E-06	8.6308E-07
-1.0017E-07	2.7843E-07	5.4941E-06	2.3343E-06
-6.8068E-08	1.5182E-07	5.7687E-06	2.3453E-07
-1.0463E-07	1.0315E-07	4.9806E-06	2.3571E-07
-1.9026E-07	1.4486E-08	4.1649E-06	-8.3235E-07
-3.0301E-07	-3.9178E-09	2.5573E-06	5.8197E-07
-4.5684E-07	1.0802E-07	3.4209E-06	1.4374E-06
-3.6319E-07	1.9266E-07	3.6871E-06	1.5019E-06
-3.2499E-07	2.8809E-07	3.7340E-06	1.0017E-06
-1.6124E-07	4.3392E-07	3.0003E-06	1.9354E-06
-8.0260E-08	3.9969E-07	4.7099E-06	2.1618E-06
-5.5450E-08	2.9384E-07	4.2409E-06	5.5319E-07
-8.4857E-09	9.4881E-08	3.1284E-06	1.0178E-06
-1.5920E-08	7.2916E-08	3.1512E-06	1.7913E-06
-1.3257E-07	1.0612E-08	3.5046E-06	1.6402E-06
-2.3240E-07	-1.4777E-08	2.5692E-06	2.1081E-06
-2.5947E-07	7.6438E-08	3.7384E-06	3.4280E-06
-2.6454E-07	2.2449E-07	4.4843E-06	2.4325E-06
-1.7882E-07	2.4754E-07	4.2495E-06	2.4252E-06
-1.7419E-07	2.8647E-07	4.3176E-06	2.3919E-06
-1.6982E-07	2.2619E-07	4.7727E-06	2.5056E-06
-8.3535E-08	1.2550E-07	4.5477E-06	1.7653E-06
-8.5817E-08	1.5100E-07	4.3917E-06	2.6083E-06
-1.5116E-07	1.6106E-07	5.3125E-06	1.8721E-06
-2.1672E-07	1.0670E-07	4.0395E-06	1.5577E-06
-1.1112E-07	5.8101E-08	4.6421E-06	3.2020E-06
-6.9792E-08	1.2010E-07	6.5043E-06	1.5203E-06
-1.1407E-08	9.1187E-08	4.0343E-06	4.7889E-07
3.4283E-08	4.2949E-08	4.9219E-06	2.2939E-06
-3.9659E-08	-3.5502E-08	4.5021E-06	3.2456E-07
-8.4863E-08	-8.0384E-08	3.7477E-06	2.4133E-06
-1.3543E-07	-1.7597E-08	5.0770E-06	1.5145E-06
-2.7067E-07	1.3829E-08	4.9109E-06	1.7463E-06
-2.8008E-07	9.8153E-08	4.4246E-06	-3.4041E-07
-3.1171E-07	8.3707E-08	2.2465E-06	2.6443E-06
-2.9226E-07	1.3954E-07	5.6963E-06	2.0726E-06
-1.8506E-07	1.2391E-07	3.2908E-06	1.4046E-06
-1.5774E-07	8.9466E-08	5.1390E-06	2.1950E-06
-8.3442E-08	2.8550E-08	3.2582E-06	9.4956E-07
-7.7612E-08	4.9851E-08	3.7877E-06	3.3323E-06
-1.0800E-07	3.5432E-08	5.1978E-06	2.8847E-06
-1.5569E-07	-3.9858E-08	5.8963E-06	1.5233E-06
-2.5072E-07	7.6163E-08	4.0343E-06	1.1642E-06
-2.6478E-07	1.1669E-07	5.0634E-06	2.1424E-06
-2.8923E-07	1.3481E-07	4.3074E-06	1.0760E-06
-2.3253E-07	1.5305E-07	4.5412E-06	2.2227E-06
-1.7558E-07	1.6550E-07	4.7464E-06	1.3960E-06
-1.3241E-07	1.3222E-07	4.1527E-06	1.6732E-06
-1.4253E-07	8.2838E-08	4.5174E-06	2.8773E-06
-1.1074E-07	1.4887E-07	6.8665E-06	1.2759E-06
-1.4595E-07	1.3346E-07	3.6203E-06	-5.9961E-07
-1.5180E-07	1.2130E-07	3.6976E-06	2.0272E-06
-9.6737E-08	5.0312E-08	3.3948E-06	1.2976E-06
-1.5533E-07	6.9387E-08	4.1700E-06	3.5762E-06
-1.8631E-07	3.4159E-08	5.6710E-06	1.6947E-06
-2.3383E-07	1.5018E-08	4.7738E-06	1.8158E-06
-2.3102E-07	5.5920E-08	5.4217E-06	1.3762E-06
-2.4702E-07	1.0749E-07	5.0907E-06	5.1345E-07
-2.3609E-07	1.6617E-07	3.4101E-06	4.9265E-07
-1.8938E-07	2.0558E-07	4.4926E-06	2.1695E-06
-9.0867E-08	2.2682E-07	4.0090E-06	-3.2045E-07
-1.0421E-07	1.9170E-07	2.1797E-06	2.8406E-06
-5.0629E-08	1.8082E-07	5.8323E-06	2.0039E-06
-6.2512E-08	6.7236E-08	2.6852E-06	2.0942E-07
-4.4073E-08	7.4197E-08	2.9264E-06	3.7014E-06
-3.0267E-08	2.0727E-08	5.2129E-06	2.8240E-06
-1.0323E-07	1.7001E-08	4.8547E-06	2.0496E-06
-1.0570E-07	-3.3462E-08	5.0185E-06	1.8294E-06
-8.5472E-08	5.3019E-08	5.0703E-06	1.4073E-06
-1.1430E-07	9.9364E-08	4.4013E-06	2.2045E-07
-7.2774E-08	4.7001E-08	2.4375E-06	1.6521E-06
-6.8037E-08	8.2590E-08	4.3889E-06	2.8524E-06
-7.5311E-08	-5.9820E-09	4.0958E-06	1.8326E-06
-5.5337E-08	-1.7140E-09	4.9612E-06	2.2509E-06
-7.1095E-08	-1.8046E-08	3.8105E-06	4.9649E-07
-1.2009E-07	1.6460E-08	2.7121E-06	2.8896E-06
-1.3963E-07	-1.2670E-08	4.7668E-06	3.4328E-06
-1.8322E-07	-1.5402E-08	5.9564E-06	2.1420E-06
-1.5776E-07	2.2409E-08	4.7066E-06	9.1619E-08
-1.3749E-07	5.6839E-08	2.5068E-06	1.3206E-06
-1.6271E-07	4.2359E-08	3.1067E-06	3.6312E-06
-1.7694E-07	1.2522E-08	5.8204E-06	3.2715E-06
-1.4727E-07	4.4787E-08	4.8053E-06	1.1223E-06
-1.4448E-07	6.0075E-08	4.5397E-06	2.1622E-06
-1.8696E-07	-4.7474E-09	4.0852E-06	1.3997E-06
-1.3395E-07	5.1627E-08	4.6897E-06	2.8956E-06
-1.3488E-07	1.5627E-08	4.8678E-06	5.6289E-07
-1.4100E-07	8.0935E-08	3.1824E-06	2.4675E-06
-1.3446E-07	8.4299E-08	5.1465E-06	2.0084E-06
-1.5421E-07	5.0678E-08	4.0286E-06	1.5913E-06
-1.2146E-07	1.0859E-07	4.1217E-06	1.5915E-06
-1.4375E-07	4.4371E-08	3.7061E-06	2.4097E-06
-1.1411E-07	6.6527E-08	4.7293E-06	1.6131E-06
-1.5798E-07	1.3038E-07	2.9352E-06	1.7906E-06
-1.4438E-07	2.8501E-08	3.9688E-06	3.1025E-06
-1.4478E-07	5.2312E-08	4.3444E-06	2.5501E-06
-1.1232E-07	6.5297E-08	4.4568E-06	2.5144E-06
