jMRUI Data Textfile

Filename: Export_to_jmrui.txt

PointsInDataset: 2048
DatasetsInFile: 1
SamplingInterval: 0.250000
ZeroOrderPhase: 0E0
BeginTime: 0E0
TransmitterFrequency: 1.2326E8
MagneticField: 2.8936E0
TypeOfNucleus:  
NameOfPatient:  
DateOfExperiment:  
Spectrometer:  
AdditionalInfo: 
SignalNames:  


Signal and FFT
sig(real)	sig(imag)	fft(real)	fft(imag)
Signal 1 out of 1 in file
5.6918E-06	1.6504E-07	3.5150E-06	1.6708E-06
2.1617E-06	-5.2614E-07	4.6452E-06	1.4314E-06
1.6152E-06	-1.1023E-06	6.2582E-06	4.5966E-07
7.8019E-07	-1.3251E-06	4.0574E-06	-2.0706E-06
-6.2118E-08	-1.2630E-06	2.5238E-06	1.0072E-06
-5.5452E-07	-8.6998E-07	4.7703E-06	1.3228E-06
-7.0268E-07	-2.6802E-07	5.2607E-06	4.1375E-07
-4.9167E-07	2.3535E-07	4.6437E-06	-5.5455E-07
-7.8101E-08	2.9476E-07	4.6975E-06	-1.0235E-08
3.6161E-07	1.6526E-07	3.8512E-06	-1.8163E-06
5.3048E-07	-1.5482E-07	1.7975E-06	7.6072E-07
4.4867E-07	-4.1921E-07	4.0441E-06	1.6263E-06
1.8619E-07	-5.5134E-07	4.6683E-06	1.6617E-06
-7.3145E-08	-5.6025E-07	6.1634E-06	-4.4347E-07
-3.5707E-07	-3.3240E-07	3.0769E-06	-1.1875E-06
-3.9481E-07	-1.4055E-07	3.6165E-06	5.5846E-07
-2.9555E-07	1.2798E-07	2.9148E-06	-1.4249E-07
-1.0323E-07	1.2256E-07	2.4354E-06	1.8920E-06
-3.1741E-08	-5.3559E-09	4.4376E-06	2.9210E-06
-1.3225E-08	-7.2390E-08	6.0490E-06	1.1060E-06
-1.6072E-07	-9.9465E-08	4.1050E-06	1.4934E-07
-3.4917E-07	-7.1122E-08	4.6159E-06	2.1147E-06
-4.9180E-07	3.2153E-08	6.3420E-06	6.3041E-07
-4.1956E-07	1.9331E-07	4.5924E-06	-6.5348E-07
-3.4433E-07	2.8959E-07	4.2446E-06	1.1507E-06
-1.0277E-07	3.3983E-07	5.6828E-06	1.0560E-07
2.6397E-08	2.0481E-07	3.7088E-06	-1.8244E-07
1.1043E-07	9.3201E-08	4.6231E-06	1.6954E-06
6.4375E-08	1.4592E-08	6.2336E-06	4.8440E-07
-7.8152E-08	4.9251E-08	5.2157E-06	-1.5720E-06
-2.5650E-07	3.6569E-08	2.7464E-06	-1.6075E-07
-3.2285E-07	2.1789E-07	5.0397E-06	1.4418E-06
-1.9908E-07	4.0307E-07	4.9025E-06	-1.2640E-06
-8.9413E-08	4.9281E-07	2.3684E-06	-4.7224E-08
-3.3418E-08	4.0977E-07	3.5806E-06	2.3338E-06
1.6398E-07	3.4501E-07	5.6710E-06	1.4276E-06
2.0624E-07	2.2915E-07	5.2064E-06	3.9707E-07
1.8545E-07	9.4978E-08	5.4839E-06	-2.7849E-07
1.2100E-07	1.2844E-07	3.4437E-06	-7.9372E-07
1.1590E-07	1.3302E-07	3.7392E-06	1.3124E-06
7.1637E-08	1.2336E-07	4.3481E-06	6.6417E-07
1.5082E-07	1.3483E-07	4.3912E-06	1.3703E-06
1.5370E-07	1.1299E-07	4.8605E-06	9.2248E-07
1.6488E-07	1.7716E-08	5.4101E-06	1.3515E-06
1.6086E-07	-1.4730E-07	5.7193E-06	-6.9374E-07
8.8885E-08	-2.0764E-07	3.2981E-06	2.1240E-07
-4.0072E-09	-1.6167E-07	5.1625E-06	1.7206E-06
-1.0613E-07	-9.9263E-08	5.5749E-06	-1.9967E-08
-1.2623E-07	8.1768E-08	4.6453E-06	1.4241E-07
-8.1982E-08	8.3868E-08	5.0068E-06	2.0891E-07
-5.8481E-08	1.3001E-07	4.4072E-06	-1.0649E-07
3.8318E-08	9.0787E-08	4.5016E-06	7.0158E-07
1.2194E-07	-4.9367E-08	4.7056E-06	1.1944E-07
2.4036E-08	-8.4949E-08	4.2150E-06	1.0606E-06
-3.9186E-08	-1.4671E-07	5.7940E-06	8.6275E-07
-1.5481E-07	-1.7542E-07	5.2274E-06	-2.1887E-07
-2.0598E-07	-2.1168E-08	4.9727E-06	-1.9868E-07
-2.2460E-07	1.2289E-07	4.3458E-06	2.2213E-07
-1.8431E-07	1.7908E-07	5.9169E-06	3.0190E-07
-4.6695E-08	9.8620E-08	4.3659E-06	-1.9821E-06
7.4647E-08	-6.4784E-09	2.6430E-06	7.0926E-07
6.4151E-08	3.3091E-08	5.0066E-06	1.4779E-06
-3.6349E-08	-1.1507E-07	5.5358E-06	9.7516E-08
-1.4844E-07	-2.1013E-07	4.6125E-06	-5.5075E-07
-2.4554E-07	-1.7266E-07	4.4572E-06	3.5891E-07
-2.9074E-07	4.6931E-08	5.2355E-06	-3.9695E-07
-3.2169E-07	2.2272E-07	4.0200E-06	-1.3814E-06
-2.1118E-07	3.3798E-07	1.8925E-06	3.4198E-08
-1.9048E-07	2.6234E-07	3.9924E-06	3.1340E-06
-8.0027E-08	2.5782E-07	6.0642E-06	5.9765E-07
-5.8995E-08	1.7065E-07	4.9364E-06	1.1972E-06
-1.8407E-07	1.1125E-07	7.3659E-06	-4.0089E-07
-1.1029E-07	9.6755E-08	4.5278E-06	-2.6353E-06
-1.1823E-07	1.3680E-07	3.0288E-06	-1.3105E-06
-8.8428E-08	1.8075E-07	2.2942E-06	2.0122E-07
-8.5244E-08	2.0530E-07	3.5556E-06	1.0970E-06
3.4351E-08	2.4161E-07	3.3800E-06	1.4497E-06
5.6616E-08	1.7183E-07	5.4450E-06	1.7993E-06
-2.1057E-08	1.0189E-07	4.9421E-06	-1.9061E-07
-8.8635E-08	9.2619E-08	4.3554E-06	6.2780E-07
-1.6627E-07	9.7216E-08	4.5019E-06	4.6007E-07
-1.7138E-07	1.0537E-07	4.7450E-06	9.4329E-07
-2.0574E-07	1.2238E-07	5.2633E-06	2.5848E-07
-1.8170E-07	2.1872E-07	4.6728E-06	-9.3385E-08
2.7676E-08	3.2492E-07	4.5044E-06	3.4477E-07
1.3697E-07	2.1439E-07	4.8279E-06	3.0833E-07
1.3833E-07	7.0570E-08	5.1819E-06	4.3925E-07
1.1210E-07	5.5518E-08	5.7536E-06	-1.3144E-06
3.9878E-08	-5.9670E-08	2.6438E-06	-1.5886E-06
-5.9678E-08	-1.3184E-07	3.0190E-06	1.5123E-06
-2.1442E-07	-1.1866E-07	5.2614E-06	1.1841E-06
-2.0345E-07	-1.7480E-08	5.5212E-06	-8.7689E-07
-1.6225E-07	2.4070E-07	3.0465E-06	-1.0690E-06
-1.0330E-07	2.0750E-07	3.7565E-06	8.5472E-07
-7.6418E-09	2.1037E-07	3.8408E-06	-4.1624E-07
8.7612E-08	1.7647E-07	3.0050E-06	1.0704E-06
9.2562E-08	6.5686E-08	4.6640E-06	1.1004E-06
4.5622E-08	-2.3097E-08	4.1517E-06	1.7129E-07
-4.3133E-08	-4.3553E-08	4.1125E-06	9.2477E-07
-1.2660E-07	-8.2367E-08	4.5399E-06	8.4001E-08
-1.4631E-07	1.5325E-08	3.3803E-06	9.4561E-07
-1.5055E-07	2.8226E-09	5.7426E-06	9.8276E-07
-1.5416E-07	9.4847E-08	3.7354E-06	-1.5100E-06
-1.0780E-07	-7.4901E-09	2.7363E-06	1.4735E-06
-1.0441E-07	5.8780E-08	4.7335E-06	9.9910E-07
-1.4733E-07	-6.1451E-09	4.1616E-06	4.2737E-07
-1.5143E-07	5.6922E-08	3.6760E-06	2.5761E-07
-1.6339E-07	5.5270E-08	3.1458E-06	1.6902E-06
-1.4090E-07	7.9642E-08	4.9771E-06	2.0382E-06
-1.4817E-07	1.2627E-07	5.2609E-06	9.5528E-07
-1.3726E-07	1.0235E-07	5.2437E-06	3.4081E-07
-6.7914E-08	1.2231E-07	4.2589E-06	-3.3972E-08
-3.5450E-08	1.3830E-07	4.3883E-06	8.8015E-07
-3.7795E-09	2.9971E-08	4.5523E-06	-1.1625E-07
-1.1887E-07	-1.0692E-08	3.1384E-06	8.5496E-07
-1.4732E-07	3.4657E-08	4.7439E-06	1.9038E-06
-1.5411E-07	8.7378E-08	5.2544E-06	8.5162E-07
-1.5950E-07	8.0854E-08	5.5077E-06	1.7962E-07
-1.3451E-07	2.0201E-07	3.9545E-06	-1.0127E-06
-1.0519E-07	2.0101E-07	2.6852E-06	1.4061E-06
-7.0019E-08	2.2799E-07	5.5279E-06	2.2568E-06
-1.8041E-08	2.0640E-07	5.8412E-06	-6.8062E-07
-6.2387E-10	1.2399E-07	3.1552E-06	-4.9187E-07
-4.2845E-08	1.5355E-08	3.4505E-06	1.4719E-06
-8.2290E-08	2.7474E-08	4.6199E-06	1.6935E-06
-1.0922E-07	1.3819E-09	5.3604E-06	7.8811E-07
-1.0972E-07	5.9433E-08	4.3139E-06	4.1828E-07
-1.1238E-07	1.2457E-07	5.1048E-06	1.4230E-06
-9.5156E-08	1.0720E-07	5.8875E-06	-4.1185E-07
-5.6861E-08	1.7393E-07	3.6031E-06	-1.2138E-06
-8.3102E-08	2.3823E-07	2.6910E-06	9.9934E-07
-4.5945E-08	1.3748E-07	4.2322E-06	1.6825E-06
-7.8627E-08	1.2635E-07	4.6383E-06	1.2768E-06
-6.4313E-08	9.9665E-08	4.8403E-06	7.4583E-07
-5.5056E-08	1.0248E-07	4.4086E-06	1.1361E-06
-3.9223E-08	1.5742E-08	5.5281E-06	3.9035E-07
-3.9264E-08	1.0898E-08	3.2527E-06	-1.9416E-07
-1.6545E-08	2.6257E-08	3.8123E-06	2.4714E-06
4.3957E-09	9.0259E-09	5.9381E-06	1.8745E-06
-1.3839E-08	1.6515E-08	6.1211E-06	-3.0345E-07
-6.3147E-09	-1.7307E-08	3.3475E-06	-2.1707E-07
-7.4995E-08	5.2893E-08	4.5904E-06	1.9620E-06
-7.8083E-08	3.7797E-08	4.7975E-06	1.1570E-06
-1.2482E-07	2.2974E-08	6.6320E-06	2.1292E-06
-1.2147E-07	-3.7627E-08	6.9032E-06	-1.6189E-06
-1.1602E-07	2.7203E-08	4.3132E-06	-1.1274E-06
-1.1966E-07	2.8355E-08	3.9920E-06	-1.1803E-06
-1.1671E-07	3.5348E-08	2.6201E-06	2.9100E-07
-6.3923E-08	4.2856E-08	3.7242E-06	1.6018E-06
-1.1224E-07	-1.9639E-08	5.2448E-06	1.7730E-06
-9.7179E-08	9.6880E-08	5.8797E-06	-2.2193E-07
-5.7615E-08	7.7270E-08	4.4650E-06	-6.8303E-07
-8.4621E-08	1.0924E-07	3.4078E-06	-7.1811E-07
-1.4236E-07	2.4111E-08	2.6731E-06	1.6077E-06
-9.0117E-08	-3.3115E-08	5.5197E-06	1.8500E-06
-1.1404E-07	6.3817E-08	5.2399E-06	-4.5011E-07
-1.0076E-07	4.8862E-08	3.5531E-06	-2.5750E-07
-9.9597E-08	8.4775E-08	3.6663E-06	1.1109E-06
-9.0433E-08	1.3077E-07	4.3709E-06	7.0558E-07
-4.4931E-08	1.7258E-07	3.8855E-06	1.1060E-06
-3.2696E-08	1.4864E-07	5.0363E-06	1.0157E-06
-1.8498E-08	1.4379E-07	4.0730E-06	-1.2935E-07
-3.9331E-08	3.5513E-08	3.2640E-06	1.4322E-06
-6.1277E-08	1.8479E-08	4.8200E-06	1.9843E-06
-8.7654E-08	6.3859E-08	5.2781E-06	1.1298E-06
-1.2083E-07	-2.3376E-08	5.4265E-06	5.2174E-07
-1.8572E-07	-3.5080E-08	4.5943E-06	-1.2642E-07
-1.8260E-07	9.7868E-08	4.1403E-06	4.1537E-07
-4.4419E-08	1.2358E-07	3.8412E-06	7.9466E-07
-9.4295E-08	1.6156E-07	4.7128E-06	1.4292E-06
-2.5298E-08	1.6841E-07	4.4653E-06	3.3472E-07
-9.8015E-09	1.9839E-07	4.0873E-06	1.8078E-06
1.3845E-08	1.3634E-07	6.0300E-06	1.4192E-06
-2.1904E-08	8.9870E-08	5.8459E-06	-6.4932E-07
-3.2113E-08	6.0535E-08	3.1595E-06	-8.8925E-07
-3.2631E-08	7.3762E-08	3.5798E-06	2.2362E-06
-4.0477E-08	1.7168E-08	5.8507E-06	6.2759E-07
-3.1346E-08	4.8774E-09	4.1671E-06	-3.3063E-07
8.6167E-09	3.6808E-08	3.0645E-06	3.9362E-07
-6.4116E-08	5.3948E-08	3.5170E-06	2.9500E-06
-1.9546E-08	8.5996E-08	6.5700E-06	1.6185E-06
-3.6880E-08	6.4175E-08	4.7561E-06	1.2465E-08
6.1342E-09	5.7083E-08	4.8408E-06	8.9583E-07
-8.4033E-09	4.0731E-08	4.3212E-06	6.7092E-07
-4.9504E-08	-8.4210E-08	5.2126E-06	1.8947E-06
-4.6600E-08	-2.5558E-08	6.5457E-06	-1.4289E-07
-1.2820E-07	-1.0532E-07	3.8120E-06	-1.4302E-06
-1.1732E-07	-1.2999E-07	2.9154E-06	1.4194E-06
-1.7196E-07	-4.3494E-08	4.9085E-06	1.5821E-06
-1.0133E-07	8.8888E-09	4.7271E-06	1.1818E-06
-8.1230E-08	7.6706E-08	5.3757E-06	9.9866E-07
-8.8899E-08	2.4124E-08	4.8936E-06	6.6305E-07
-6.9785E-08	8.9687E-08	5.4789E-06	7.1241E-07
-6.3365E-08	1.1217E-07	4.7614E-06	-2.3725E-07
-1.1611E-07	5.6180E-08	4.1521E-06	9.5210E-07
-1.1985E-07	1.7830E-08	5.4412E-06	9.8267E-07
-1.2156E-07	1.8384E-08	4.8874E-06	1.0582E-07
-7.0152E-08	2.5340E-08	5.3664E-06	8.9404E-07
-5.8679E-08	-2.5519E-08	5.3199E-06	-1.4095E-06
-5.4995E-08	9.8076E-08	2.4296E-06	5.0746E-07
-2.6582E-08	1.3896E-07	5.8432E-06	1.7443E-06
-1.1345E-07	7.7584E-08	4.3889E-06	-1.5054E-06
-4.0654E-08	1.0804E-07	2.5248E-06	1.6441E-06
-3.8677E-08	1.0782E-07	5.7346E-06	2.3135E-06
-8.6218E-08	4.7682E-08	5.9280E-06	-1.0748E-07
-9.9749E-08	1.0098E-08	4.3964E-06	6.3562E-08
