jMRUI Data Textfile

Filename: Export_to_jmrui.txt

PointsInDataset: 2048
DatasetsInFile: 1
SamplingInterval: 0.250000
ZeroOrderPhase: 0E0
BeginTime: 0E0
TransmitterFrequency: 1.2326E8
MagneticField: 2.8936E0
TypeOfNucleus:  
NameOfPatient:  
DateOfExperiment:  
Spectrometer:  
AdditionalInfo: 
SignalNames:  


Signal and FFT
sig(real)	sig(imag)	fft(real)	fft(imag)
Signal 1 out of 1 in file
2.1464E-06	6.7523E-07	1.8655E-06	5.0706E-09
1.4804E-06	-2.9568E-07	2.1204E-06	4.9900E-07
1.1143E-06	-7.2783E-07	2.5589E-06	-1.4940E-06
5.5074E-07	-9.2575E-07	-6.7582E-07	-1.6408E-06
6.3748E-08	-9.0391E-07	-7.5101E-07	1.1342E-06
-3.4551E-07	-5.5106E-07	3.9377E-07	1.5456E-06
-4.2767E-07	-1.9011E-07	1.2590E-06	1.9246E-06
-2.3760E-07	4.5343E-08	2.2892E-06	6.0490E-07
8.2129E-08	2.4100E-07	5.8514E-07	-2.1386E-07
3.3955E-07	9.7261E-08	1.5776E-07	1.3372E-06
4.3393E-07	-1.3199E-07	8.7369E-07	2.1400E-06
3.9956E-07	-4.0592E-07	2.9138E-06	1.9668E-06
1.8658E-07	-4.8281E-07	2.0236E-06	-8.5281E-07
-4.0934E-08	-3.8623E-07	2.0363E-07	1.2748E-06
-2.2247E-07	-2.7247E-07	2.3685E-06	7.9519E-07
-3.3900E-07	-7.3678E-08	5.6952E-09	8.0925E-08
-1.5721E-07	-2.7920E-08	6.9864E-07	3.1392E-06
-1.5383E-08	1.0105E-07	3.9116E-06	2.2324E-06
6.0193E-08	9.5251E-08	3.4713E-06	-1.0040E-06
5.3226E-08	-5.5717E-08	8.9705E-07	-8.4605E-07
-4.5299E-08	-1.2158E-07	8.4261E-07	2.0617E-07
-1.9424E-07	-1.5456E-07	5.4115E-07	8.0272E-07
-2.7567E-07	-4.5736E-08	1.6660E-06	1.3549E-06
-3.1512E-07	5.8226E-08	1.8045E-06	2.5887E-07
-2.1250E-07	1.8926E-07	1.0811E-06	1.4698E-07
-1.0027E-07	2.1234E-07	3.6077E-07	7.5674E-07
3.4623E-08	1.5795E-07	1.1807E-06	2.1914E-06
1.6475E-07	9.0158E-08	3.0674E-06	1.2380E-06
6.7001E-08	-2.5570E-08	2.2143E-06	-8.4844E-07
-3.5180E-08	1.2945E-08	2.0258E-07	-1.2598E-07
-1.3646E-07	4.2740E-08	9.2746E-07	1.4568E-06
-1.9092E-07	1.7090E-07	1.8726E-06	6.3331E-07
-2.1250E-07	2.3521E-07	1.0039E-06	2.1146E-07
-1.0591E-07	3.3684E-07	7.4700E-07	8.8711E-07
2.6632E-08	3.1592E-07	9.8565E-07	1.3866E-06
1.5505E-07	2.6822E-07	1.9107E-06	1.4684E-06
1.6023E-07	2.1448E-07	1.8023E-06	3.9305E-07
1.6148E-07	1.5227E-07	1.0989E-06	1.1516E-06
1.4309E-07	1.3226E-07	2.6772E-06	1.2545E-06
1.3173E-07	1.5301E-07	2.3011E-06	-1.2216E-06
1.3888E-07	1.3259E-07	-9.1544E-07	-3.6468E-07
8.2086E-08	1.0670E-07	4.4911E-07	2.6868E-06
1.4863E-07	3.7465E-08	2.1563E-06	1.5302E-06
1.8598E-07	-4.2106E-08	2.4583E-06	1.0646E-06
1.6259E-07	-1.0736E-07	1.5770E-06	-8.8280E-07
1.4840E-07	-1.3983E-07	-4.9053E-07	1.4882E-06
4.8790E-08	-1.3194E-07	2.1340E-06	2.1671E-06
-5.2225E-08	-4.2633E-08	1.6116E-06	1.3934E-06
-5.8187E-08	-9.8473E-10	3.0884E-06	2.1140E-06
-3.5812E-08	9.3361E-08	3.8152E-06	-3.5748E-07
1.8432E-08	1.3020E-07	1.2432E-06	-1.1515E-06
8.4286E-08	8.5954E-08	1.3662E-06	1.3775E-06
7.7104E-08	-3.5297E-08	3.1391E-06	-4.9766E-07
1.8124E-08	-1.9784E-07	1.0049E-06	-4.1319E-07
-1.0932E-08	-1.5985E-07	2.6262E-06	-7.1164E-07
-8.5578E-08	-1.7539E-07	-4.4195E-07	-2.1329E-06
-1.6252E-07	-1.4078E-07	-7.8196E-07	1.2421E-06
-1.7474E-07	5.9387E-08	1.1895E-06	1.2129E-06
-1.2230E-07	4.6866E-08	1.1332E-06	-2.8077E-07
-5.0932E-09	1.9173E-07	-9.0742E-07	6.9952E-07
6.3114E-08	1.6618E-07	1.1458E-06	2.1863E-06
1.0956E-07	2.6282E-08	7.7058E-07	7.0618E-07
3.5635E-08	-1.2212E-07	9.7098E-07	2.0124E-06
-1.0982E-08	-2.5303E-07	1.4247E-06	1.4687E-06
-1.6891E-07	-1.4448E-07	2.2878E-06	1.8448E-06
-2.4097E-07	-6.6947E-08	2.2983E-06	1.2402E-07
-2.8397E-07	7.3188E-08	1.4674E-06	4.8363E-07
-2.0357E-07	1.3579E-07	1.2983E-06	2.9696E-07
-1.3169E-07	2.2968E-07	1.3119E-06	7.5821E-07
-1.1518E-07	2.4821E-07	1.0053E-06	3.9652E-07
-1.2005E-07	1.5226E-07	1.1986E-06	1.2764E-06
-1.0106E-07	1.5406E-07	1.4197E-06	7.7436E-07
-5.6689E-08	1.4958E-07	2.0316E-06	1.2657E-06
-2.7552E-08	1.5848E-07	2.1088E-06	-6.7586E-07
-7.1798E-08	8.3302E-08	3.1146E-07	-4.1012E-07
4.6601E-08	1.3969E-07	-6.5401E-07	3.9746E-07
8.4815E-08	1.1353E-07	-6.5893E-08	2.9623E-06
8.8831E-08	1.8684E-07	2.1014E-06	2.1664E-06
6.0499E-08	1.1911E-07	2.1728E-06	2.1790E-06
-8.5048E-08	4.6052E-08	3.6008E-06	5.7918E-07
-8.6833E-08	-1.0090E-08	1.9512E-06	-3.0693E-07
-1.8982E-07	5.6996E-08	2.1594E-06	-6.5353E-07
-9.0380E-08	1.3021E-07	-1.4496E-07	-1.0414E-06
-4.6646E-08	2.1294E-07	-1.6867E-07	1.0913E-06
2.3323E-08	1.7581E-07	-1.3149E-07	1.3429E-06
1.0153E-07	1.6960E-07	1.2049E-06	3.5207E-06
1.6749E-07	1.4773E-07	4.2177E-06	9.6916E-07
1.3015E-07	-3.2801E-08	1.3298E-06	-1.2423E-06
3.3178E-08	-1.2316E-07	6.5913E-07	5.6180E-07
-2.6419E-08	7.6007E-09	5.9133E-07	2.2779E-07
-9.1602E-08	1.5101E-08	2.6012E-07	1.4212E-06
-1.3547E-07	4.4262E-08	1.0717E-06	1.4191E-06
-1.1220E-07	4.8770E-08	1.1141E-06	1.4985E-06
-5.0710E-08	1.1312E-07	1.2678E-06	1.1769E-06
6.1649E-08	1.6781E-07	7.2260E-07	1.6378E-06
6.8306E-08	1.2690E-07	1.4842E-06	2.6042E-06
1.1726E-07	9.2101E-08	3.0496E-06	2.1200E-06
3.7852E-08	-1.9838E-08	3.0831E-06	5.9194E-07
-3.3911E-08	-1.0571E-07	2.4650E-06	-2.7538E-07
-5.6465E-08	-8.6847E-08	4.3984E-07	-2.0744E-07
-1.0669E-07	-1.5466E-09	1.2118E-06	2.4016E-06
-7.6586E-08	6.2293E-08	3.1796E-06	8.1686E-07
-9.5056E-08	-7.3164E-09	2.1593E-06	-2.6125E-07
-1.1791E-07	4.4347E-08	1.0155E-06	-5.7213E-07
-7.4055E-08	6.8852E-08	1.4018E-07	8.7925E-07
-5.3437E-08	5.9069E-08	7.0327E-07	1.8300E-06
-1.2214E-07	-4.8959E-08	2.5484E-06	2.7040E-06
-1.5322E-07	-3.7771E-08	3.4008E-06	-2.4009E-07
-1.7710E-07	-7.1005E-08	1.1124E-06	3.2914E-07
-1.2053E-07	6.0767E-08	2.1963E-06	4.7756E-07
-9.6350E-08	1.6199E-07	1.3924E-06	7.1206E-07
-6.8520E-08	1.5235E-07	2.9919E-06	2.6029E-07
-9.6989E-08	8.1276E-08	1.2955E-06	-1.3254E-06
-3.3825E-08	5.7232E-08	1.5466E-07	-3.3548E-07
-1.1051E-07	-3.1732E-08	-5.0459E-07	1.0316E-06
-1.3473E-07	-5.1291E-09	1.0437E-06	2.5511E-06
-1.1821E-07	6.8259E-08	2.7852E-06	1.6033E-06
-1.1142E-07	1.0053E-07	2.2135E-06	-3.4494E-07
-6.6216E-08	1.0533E-07	9.6672E-07	8.7708E-07
-1.1814E-07	1.8045E-07	2.4041E-06	-1.7271E-07
-8.5548E-08	1.3409E-07	-7.0657E-07	2.0641E-07
3.0730E-09	1.5221E-07	2.1838E-06	2.7279E-06
4.1532E-09	1.6405E-07	2.0913E-06	-5.4456E-07
-2.9979E-08	7.5935E-08	8.3816E-07	1.1328E-06
2.1785E-08	1.5974E-08	1.7161E-06	6.0729E-07
-1.0740E-07	4.4369E-08	1.4990E-06	1.0354E-06
-2.8297E-08	5.4683E-08	1.5007E-06	-3.9615E-08
-1.2603E-07	-4.6443E-08	2.2843E-07	1.8809E-06
-8.5787E-08	3.4997E-08	3.4481E-06	1.8793E-06
-6.4439E-08	1.0030E-07	2.1431E-06	-4.9996E-07
1.1292E-09	2.0451E-07	2.1768E-06	5.4089E-07
-8.7183E-09	1.6158E-07	1.0427E-06	-1.3430E-06
-5.4632E-08	1.2526E-07	-4.0866E-07	2.5899E-06
6.1671E-09	6.7502E-08	4.9603E-06	1.8584E-06
-6.0397E-09	2.3833E-08	2.5746E-06	-2.7644E-06
-2.5140E-08	3.1713E-08	-2.7905E-07	-5.3487E-07
9.9536E-10	7.0419E-08	1.1470E-06	1.0666E-06
-5.7443E-09	-3.0353E-08	2.0174E-06	-4.5559E-07
-3.1144E-08	-3.0694E-08	-5.1058E-09	-2.2795E-07
1.0719E-08	3.4713E-08	1.4193E-06	1.3147E-06
2.0423E-08	4.3547E-08	2.0392E-06	-8.9445E-08
-5.4968E-08	4.0944E-08	2.0416E-06	-1.3219E-06
-7.3622E-08	5.8234E-09	-1.4076E-06	-2.6110E-06
-6.5726E-08	-5.0896E-08	-2.8639E-06	2.1133E-06
-1.0284E-07	-7.3408E-08	5.4884E-07	3.4630E-06
-6.0768E-08	4.7541E-09	2.5416E-06	2.1915E-06
-1.4236E-07	-1.0469E-07	1.4330E-06	-5.6757E-07
-7.3124E-08	-1.1750E-08	-9.7801E-07	2.4849E-06
-9.1486E-08	5.9357E-08	3.6901E-06	3.7133E-06
-6.8634E-08	1.4229E-07	4.4411E-06	-5.2640E-07
-4.6202E-08	6.1331E-08	1.9432E-06	-2.1165E-06
-6.5737E-08	9.5137E-08	-7.3105E-07	-9.5297E-07
-7.2463E-08	5.0583E-08	2.5667E-07	1.8475E-06
-1.1423E-07	-5.5002E-08	2.2599E-06	3.5163E-07
-1.1106E-07	2.4645E-08	4.6860E-07	-7.5394E-07
-1.7667E-07	-8.8847E-08	-1.8579E-07	4.8026E-07
-9.8567E-08	1.0733E-07	-2.9121E-07	1.1443E-06
-1.2968E-07	7.2976E-08	5.6952E-07	2.5110E-06
-9.3220E-08	4.3378E-08	2.2544E-06	1.6774E-06
3.5563E-08	1.8614E-07	1.8722E-06	4.5446E-07
3.9736E-09	1.0888E-07	8.9085E-07	4.0889E-07
-3.6721E-08	6.5827E-08	1.1299E-06	1.9217E-06
4.9999E-08	5.3562E-08	3.5581E-06	7.9646E-07
-3.9382E-08	1.5681E-09	1.7950E-06	-2.4693E-06
-4.1796E-08	-1.4340E-09	-2.1728E-06	-5.0578E-07
-1.5359E-07	-5.9796E-08	3.9205E-07	3.6382E-06
-1.0321E-07	-3.8403E-08	3.3783E-06	-6.8708E-08
-1.4647E-07	4.2161E-09	-4.6451E-07	-8.9090E-07
-7.8856E-08	1.2190E-07	-1.8431E-07	9.3405E-07
9.5522E-09	1.8138E-07	-9.8848E-07	2.0169E-06
4.2437E-08	1.9872E-07	2.2858E-06	3.4290E-06
9.2167E-09	1.6284E-07	2.2111E-06	1.4929E-08
-1.0859E-08	8.2481E-08	8.6454E-07	1.0906E-06
-3.1939E-08	5.2210E-08	9.8510E-07	9.1282E-07
-6.3306E-08	-3.4526E-08	1.4452E-06	2.2476E-06
-1.8339E-08	-6.0447E-08	2.9978E-06	5.5143E-07
-2.0795E-08	-1.6744E-08	1.3512E-06	-3.9674E-07
-2.5240E-08	3.0005E-08	6.9692E-07	4.9624E-07
-8.7670E-08	1.0881E-08	1.5361E-06	9.4773E-07
-4.0404E-08	7.3839E-08	1.3113E-06	-8.4760E-08
8.3164E-09	5.7571E-08	1.1253E-06	5.6755E-07
2.6336E-08	1.0807E-07	1.1838E-06	-7.1273E-07
-1.5576E-08	1.1190E-07	-7.1543E-07	-8.6320E-08
4.6460E-08	1.9948E-08	-5.3004E-07	1.5674E-06
-1.8822E-08	-8.5833E-08	1.1588E-06	2.2303E-06
-4.2862E-08	-6.7904E-08	1.6884E-06	2.4378E-07
-1.1252E-07	-5.4831E-08	1.8843E-07	2.2188E-07
-5.7415E-08	2.8150E-09	-5.6939E-07	6.2970E-07
-1.4292E-07	-2.8285E-08	-5.6620E-07	2.8231E-06
-7.8791E-08	2.8390E-08	1.5041E-06	2.6059E-06
-9.6337E-08	1.1343E-07	2.0165E-06	2.4793E-06
-1.1587E-07	4.0490E-08	3.2345E-06	7.8153E-08
-3.3532E-08	1.8618E-07	-1.8530E-07	-4.0592E-07
-8.8937E-08	5.1533E-08	6.5178E-07	1.6907E-06
-1.5673E-08	8.0262E-08	2.2087E-07	9.4078E-07
-8.8685E-08	3.2420E-08	9.1814E-07	2.9574E-06
-7.7485E-08	-1.0927E-08	2.7183E-06	6.8614E-07
-9.9309E-08	1.2775E-08	-5.1169E-07	4.1423E-07
-1.0366E-07	2.1781E-09	1.0386E-06	3.5909E-06
1.0061E-08	1.3865E-07	2.8603E-06	1.2235E-06
-6.8384E-08	8.0692E-08	1.4445E-06	1.3160E-06
-6.5928E-08	1.2290E-07	2.4390E-06	1.0075E-06
2.2779E-08	1.0234E-07	1.4994E-06	5.1407E-07
-1.2473E-08	1.0050E-07	1.6017E-06	8.2655E-07
-6.5267E-08	-3.4754E-08	1.7285E-06	8.9484E-07
-1.0296E-07	4.2201E-08	2.0206E-06	-2.2099E-07
