jMRUI Data Textfile

Filename: Export_to_jmrui.txt

PointsInDataset: 2048
DatasetsInFile: 1
SamplingInterval: 0.250000
ZeroOrderPhase: 0E0
BeginTime: 0E0
TransmitterFrequency: 1.2326E8
MagneticField: 2.8936E0
TypeOfNucleus:  
NameOfPatient:  
DateOfExperiment:  
Spectrometer:  
AdditionalInfo: 
SignalNames:  


Signal and FFT
sig(real)	sig(imag)	fft(real)	fft(imag)
Signal 1 out of 1 in file
3.4755E-06	2.7961E-06	-2.0929E-06	2.1458E-06
4.6974E-06	5.4044E-07	-6.3330E-07	2.2083E-06
3.4123E-06	-1.9016E-06	-1.7740E-06	1.7577E-06
2.4217E-06	-3.1079E-06	-1.1102E-06	3.5005E-06
3.1231E-07	-3.5367E-06	-2.1197E-07	3.0159E-06
-1.2047E-06	-2.7300E-06	9.6672E-07	3.3317E-06
-2.2239E-06	-1.3913E-06	1.1878E-06	5.7371E-07
-2.0238E-06	1.7453E-08	-1.2938E-06	1.5387E-06
-1.3448E-06	8.6349E-07	6.9233E-08	2.1478E-06
-2.6606E-07	1.1459E-06	-6.4714E-07	1.7866E-06
5.6860E-07	7.8903E-07	-3.5930E-07	2.0717E-06
1.0591E-06	3.3259E-07	-9.0511E-07	2.9050E-06
1.0196E-06	-3.2788E-07	1.5322E-06	2.8972E-06
6.9056E-07	-8.1178E-07	1.3825E-07	5.5919E-07
1.3534E-07	-9.4664E-07	-5.2409E-07	2.2452E-06
-2.0939E-07	-9.8879E-07	1.7856E-07	1.6831E-06
-5.9090E-07	-8.1852E-07	-4.0092E-07	1.5472E-06
-6.5104E-07	-5.5302E-07	-9.4080E-07	2.1671E-06
-8.2429E-07	-3.6209E-07	3.5588E-07	2.5851E-06
-7.7074E-07	-5.5395E-08	-5.5495E-07	1.1599E-06
-7.8097E-07	1.3016E-07	-9.0749E-07	2.8276E-06
-6.4026E-07	4.0255E-07	-5.3821E-07	2.4417E-06
-5.3879E-07	6.2429E-07	1.7423E-07	3.8574E-06
-2.6695E-07	6.3298E-07	1.2912E-06	1.3524E-06
3.8667E-08	5.4688E-07	-1.3638E-06	2.3565E-06
3.2912E-07	3.1519E-07	9.3251E-07	3.3511E-06
3.7916E-07	6.2570E-08	4.3870E-07	1.7513E-06
2.5597E-07	-2.6829E-07	3.6764E-08	2.5382E-06
-4.7702E-08	-3.5028E-07	8.7178E-07	2.5004E-06
-4.2169E-07	-2.9548E-07	4.8869E-07	1.3261E-06
-6.9144E-07	1.1971E-09	-1.8251E-07	2.5013E-06
-6.8253E-07	3.6818E-07	1.0115E-06	1.2547E-06
-5.0437E-07	7.0910E-07	-1.8166E-06	1.7812E-06
-1.4517E-07	8.7281E-07	6.5126E-07	3.9329E-06
1.9209E-07	7.8760E-07	6.6056E-07	1.5964E-06
5.3324E-07	6.3282E-07	3.7484E-07	2.7459E-06
6.4343E-07	3.4490E-07	9.7160E-07	1.3165E-06
6.0961E-07	4.9319E-08	-7.0678E-07	1.5145E-06
4.6968E-07	-1.0828E-07	-4.1424E-07	2.9239E-06
3.5050E-07	-1.4423E-07	8.8898E-07	2.4784E-06
1.6938E-07	-1.1081E-07	-2.2777E-07	1.9244E-06
1.0812E-07	-5.4531E-08	9.4910E-07	3.1387E-06
6.9149E-08	-1.5270E-07	8.9930E-07	7.6322E-07
1.2962E-07	-2.1088E-07	-7.8684E-07	2.2634E-06
3.3747E-08	-2.2215E-07	8.1814E-07	2.3882E-06
2.0538E-08	-2.8703E-07	4.6052E-07	1.6446E-06
-9.1011E-08	-2.6082E-07	1.2373E-07	1.4288E-06
-6.4173E-08	-1.0443E-07	-6.1224E-08	1.8377E-06
-4.2572E-08	-6.5959E-08	-3.0312E-07	1.0575E-06
4.3064E-08	4.7066E-08	-1.3102E-06	2.7206E-06
1.2875E-07	-4.9490E-08	1.0080E-06	2.2310E-06
1.3818E-07	-1.1758E-07	-1.3587E-06	8.8583E-07
7.5605E-08	-2.0638E-07	-1.0975E-06	3.7484E-06
-7.9424E-10	-2.9156E-07	9.2114E-07	2.4951E-06
-1.9027E-07	-2.3483E-07	-6.7286E-07	1.5357E-06
-2.7653E-07	-1.4121E-07	-7.1724E-07	3.1838E-06
-2.5840E-07	3.3687E-08	4.6108E-07	2.1945E-06
-1.4358E-07	1.8940E-07	-1.3402E-06	2.0770E-06
-3.7321E-08	2.2042E-07	-6.4701E-07	3.8402E-06
1.0896E-07	1.5270E-07	4.9561E-07	3.1690E-06
1.7767E-07	5.7542E-09	-9.2464E-08	2.4692E-06
1.2894E-07	-1.9624E-07	-4.1034E-07	3.7436E-06
8.1149E-08	-2.3979E-07	1.5056E-06	3.0581E-06
-1.4876E-07	-2.7489E-07	-4.4051E-07	1.9449E-06
-2.6737E-07	-7.0500E-08	2.8144E-07	4.0893E-06
-2.6948E-07	6.0134E-08	1.2740E-06	2.4242E-06
-1.5051E-07	2.2591E-07	2.1585E-07	2.5785E-06
4.3635E-09	2.9294E-07	4.3487E-07	2.9800E-06
1.2587E-07	2.4429E-07	1.3957E-06	3.1580E-06
1.9424E-07	6.9404E-08	1.3619E-06	1.2554E-06
1.1816E-07	-1.1932E-07	-3.6830E-07	1.9052E-06
3.0011E-08	-1.5216E-07	3.1726E-07	2.4333E-06
-1.5021E-07	-1.4022E-07	-4.1289E-08	2.4428E-06
-2.5631E-07	-7.2371E-08	6.0345E-07	2.7171E-06
-2.7630E-07	9.6029E-08	3.7460E-07	2.0025E-06
-1.2786E-07	1.7386E-07	-6.2968E-08	2.5291E-06
3.1518E-08	2.7146E-07	4.6649E-07	2.6272E-06
2.3047E-07	2.0517E-07	2.5467E-07	2.4138E-06
2.3864E-07	1.0949E-07	7.2942E-07	2.5812E-06
2.0332E-07	3.7629E-08	7.2452E-08	1.5475E-06
6.4628E-08	-1.0922E-07	-5.1411E-07	3.4703E-06
-1.1969E-08	-8.8748E-08	1.8917E-06	2.6135E-06
-6.7293E-08	-3.0456E-08	1.6675E-08	1.3423E-06
-8.6919E-08	5.6618E-08	7.5807E-07	2.3956E-06
2.7118E-08	1.1094E-07	-4.4908E-07	5.1352E-07
1.3188E-07	1.0627E-07	-1.6737E-06	3.3772E-06
2.2177E-07	5.5969E-08	6.9697E-07	3.0524E-06
1.8433E-07	-2.6574E-08	-3.5131E-07	2.7476E-06
1.3858E-07	-1.4911E-07	1.0328E-06	3.0617E-06
6.2039E-08	-1.0617E-07	1.6952E-07	1.5710E-06
-9.8888E-08	-1.0078E-07	-3.5214E-07	2.7727E-06
-1.2497E-07	-2.8695E-08	3.0583E-07	2.4036E-06
-1.3737E-07	5.0731E-08	-4.8174E-07	2.2136E-06
-1.5018E-08	1.0248E-07	-8.3614E-07	3.2806E-06
1.2780E-07	1.0441E-07	4.7202E-07	4.0551E-06
2.4135E-07	2.0072E-09	1.4162E-06	2.8574E-06
1.9639E-07	-7.5308E-08	6.7009E-07	2.0067E-06
1.8514E-07	-1.3417E-07	8.2846E-08	2.4698E-06
5.5019E-08	-1.7322E-07	6.0093E-07	2.4587E-06
-2.5428E-08	-1.7465E-07	-3.1039E-07	2.1471E-06
-7.1810E-08	-1.3354E-07	3.3706E-07	3.6601E-06
-5.5551E-08	-9.4496E-08	1.5912E-06	1.8334E-06
-1.1944E-07	-4.4043E-08	-6.0448E-07	1.4702E-06
-1.0934E-07	-5.9080E-08	-1.7947E-07	2.9942E-06
-1.0696E-07	-3.2585E-08	4.6090E-07	2.2261E-06
-1.9243E-07	-4.2051E-08	-4.9015E-07	1.8676E-06
-1.9146E-07	5.3317E-08	-1.0486E-06	3.1553E-06
-9.4710E-08	2.7466E-08	5.7064E-07	3.6746E-06
-7.9279E-08	8.9116E-08	4.9978E-07	2.1858E-06
-5.2090E-08	1.7310E-07	-2.2004E-07	2.8815E-06
1.8825E-08	1.4395E-07	4.2142E-07	2.6878E-06
1.5149E-07	7.1854E-08	4.0333E-08	2.7639E-06
1.1800E-07	1.0985E-08	6.6901E-07	2.2878E-06
1.1514E-07	-9.1064E-08	-8.9460E-07	1.9418E-06
-4.3151E-09	-1.4328E-07	-4.6585E-07	3.6166E-06
-7.2927E-08	-1.1022E-07	1.2852E-07	2.8283E-06
-1.2702E-07	-6.6760E-08	-3.4132E-07	3.5205E-06
-1.4202E-07	7.9961E-08	9.3813E-07	3.6424E-06
-7.6129E-08	1.0381E-07	1.2070E-06	2.3574E-06
2.9725E-08	1.2122E-07	-3.8254E-08	1.7823E-06
7.8085E-08	1.3999E-07	-5.5116E-07	2.9449E-06
1.3718E-07	9.7441E-08	1.6000E-07	3.2544E-06
1.5862E-07	-4.3822E-08	7.9161E-07	3.2227E-06
8.0862E-08	-7.6308E-08	1.1046E-06	1.7332E-06
-1.6482E-08	-8.3282E-08	-9.5354E-07	1.6345E-06
-2.9199E-08	-5.4234E-08	-6.4713E-07	3.3344E-06
-1.0095E-07	-6.2717E-08	1.0668E-07	2.8813E-06
-9.6309E-08	6.8382E-08	-1.5517E-07	2.8078E-06
-5.5897E-08	6.8330E-08	-1.5373E-07	2.7362E-06
-3.1150E-08	7.1461E-08	-5.8384E-07	2.8114E-06
-1.8243E-09	1.0952E-07	-7.6366E-07	3.7689E-06
1.4110E-08	5.3309E-08	1.0374E-06	4.2718E-06
2.6489E-08	-9.7156E-09	1.2519E-06	1.6821E-06
2.7332E-08	5.4954E-09	-1.2260E-06	2.3677E-06
2.0808E-08	2.5347E-08	6.9516E-08	3.5411E-06
6.5970E-08	4.5440E-08	-2.7646E-07	2.4748E-06
6.2219E-08	1.2827E-08	-1.0094E-06	3.3728E-06
1.4111E-07	-2.0819E-08	-2.8460E-07	4.5661E-06
8.5629E-08	-8.2320E-08	1.5624E-06	3.5516E-06
4.6268E-08	-4.5956E-08	-2.0519E-07	2.2775E-06
1.7060E-08	-1.0559E-07	1.9765E-07	3.8293E-06
-7.8243E-08	-1.1849E-07	1.1144E-07	2.5265E-06
-1.2039E-07	-8.0838E-08	-4.0572E-07	4.0163E-06
-8.7601E-08	1.5443E-08	8.7102E-07	3.6178E-06
-8.7825E-08	5.4159E-08	1.0787E-06	3.1189E-06
1.6213E-08	6.6594E-08	2.2343E-07	1.6392E-06
2.3599E-08	1.7235E-08	-1.2356E-06	3.4656E-06
6.1626E-08	-1.5847E-08	3.6995E-07	3.7441E-06
6.2808E-08	-6.1902E-08	3.0515E-07	3.4211E-06
2.0747E-08	-8.8086E-08	2.5334E-07	2.4016E-06
3.3821E-09	-7.0437E-08	-1.4710E-06	3.8678E-06
-3.5141E-08	-5.4138E-08	1.2007E-06	4.5187E-06
-9.2419E-08	-6.7225E-08	9.2533E-08	2.4485E-06
-5.9710E-08	-4.2463E-08	-4.7173E-07	4.0770E-06
-4.6561E-08	8.7164E-08	1.8877E-07	3.9535E-06
-5.2835E-08	6.7820E-08	3.2224E-07	4.5006E-06
-2.6567E-09	5.5020E-08	1.3596E-06	4.1719E-06
1.3117E-08	9.7433E-08	1.2654E-06	3.4073E-06
1.8719E-08	4.1717E-08	1.1865E-06	3.1769E-06
3.8803E-08	1.7999E-08	6.7253E-07	2.7194E-06
2.0272E-08	2.5928E-08	4.6592E-07	3.3760E-06
1.6350E-08	-4.4859E-08	5.9787E-07	2.6394E-06
-8.2960E-09	1.9489E-09	-6.4326E-07	3.7860E-06
-2.1494E-08	-1.3585E-08	1.3417E-06	4.2403E-06
-4.8886E-08	-3.1081E-08	4.8352E-07	3.0981E-06
-3.6737E-08	2.6727E-08	1.2629E-06	4.1916E-06
-7.6131E-08	1.9412E-08	1.0946E-06	2.4268E-06
-5.0125E-08	4.3973E-08	3.3130E-07	4.0348E-06
-1.1215E-08	5.2637E-08	2.0007E-06	2.8643E-06
3.0806E-08	1.2267E-07	-1.9781E-07	2.6888E-06
4.9445E-08	8.4744E-08	1.3588E-06	4.2218E-06
6.0298E-08	2.6105E-08	1.2624E-06	2.2751E-06
5.6448E-08	1.8361E-08	6.3572E-07	3.5503E-06
4.6390E-08	5.0461E-09	1.7603E-06	2.4214E-06
1.8115E-08	-3.2147E-10	7.5743E-08	2.3802E-06
4.7604E-08	-1.3132E-08	8.5616E-07	3.2210E-06
1.9523E-08	-3.6495E-08	7.3228E-07	2.5131E-06
7.6218E-08	-4.3061E-08	4.7870E-07	2.7958E-06
2.9876E-08	-3.2710E-08	5.5880E-07	2.9033E-06
5.7825E-08	3.3874E-08	7.3780E-07	2.7992E-06
4.9207E-08	1.8718E-08	8.5422E-07	2.6870E-06
4.9228E-08	-6.2244E-10	7.0464E-07	1.5894E-06
-1.1654E-08	-8.0912E-08	-1.2678E-06	2.2532E-06
2.1111E-08	-6.8575E-08	-4.0601E-08	3.6962E-06
2.0796E-08	-2.6098E-08	-1.7033E-07	2.6128E-06
2.0565E-08	-4.8954E-08	-5.4035E-07	3.5761E-06
1.7715E-08	4.2522E-08	-2.6190E-07	3.5373E-06
-3.3593E-08	-1.2720E-08	-1.2042E-07	4.2657E-06
-5.1473E-08	-3.4941E-08	5.4102E-07	3.9452E-06
1.6072E-09	-1.2409E-08	4.2242E-07	4.3144E-06
-1.1843E-08	-2.2038E-08	1.7358E-06	4.1719E-06
-3.5957E-08	-3.9254E-08	1.5201E-06	2.5719E-06
-7.8424E-08	-2.6299E-08	1.5165E-07	2.9559E-06
-4.9479E-08	2.4382E-08	9.9308E-07	3.8215E-06
-7.1543E-08	2.7893E-08	1.2362E-06	2.5503E-06
-3.8401E-09	-1.8997E-08	-8.4983E-08	2.8657E-06
-3.1825E-08	2.2780E-08	5.8123E-07	3.8139E-06
8.7627E-09	1.7287E-08	7.2789E-07	3.0852E-06
-2.6548E-08	-1.0310E-08	3.8696E-07	4.0690E-06
-1.6148E-08	-2.1773E-08	2.1332E-06	3.5563E-06
1.2440E-08	-1.3090E-08	8.8061E-07	2.2682E-06
1.2137E-09	1.2882E-08	9.4634E-07	3.3468E-06
-2.1863E-08	-1.0046E-08	1.0108E-06	2.5868E-06
-1.0870E-08	5.5212E-08	1.1076E-06	3.2762E-06
-9.6677E-08	-2.0147E-08	1.4842E-06	1.7677E-06
-6.2189E-08	7.9637E-09	-5.0389E-07	2.3053E-06
