jMRUI Data Textfile

Filename: Export_to_jmrui.txt

PointsInDataset: 2048
DatasetsInFile: 1
SamplingInterval: 0.250000
ZeroOrderPhase: 0E0
BeginTime: 0E0
TransmitterFrequency: 1.2326E8
MagneticField: 2.8936E0
TypeOfNucleus:  
NameOfPatient:  
DateOfExperiment:  
Spectrometer:  
AdditionalInfo: 
SignalNames:  


Signal and FFT
sig(real)	sig(imag)	fft(real)	fft(imag)
Signal 1 out of 1 in file
1.3060E-06	1.5841E-06	-2.0889E-06	9.1484E-07
2.2025E-06	5.5301E-07	-1.6855E-06	1.9370E-06
1.6764E-06	-6.5583E-07	-4.2635E-07	1.9429E-06
1.1706E-06	-1.4162E-06	-4.8541E-07	7.8826E-07
1.7231E-07	-1.5870E-06	-1.4914E-06	1.8264E-06
-5.0859E-07	-1.2795E-06	7.3767E-07	2.1599E-06
-1.0351E-06	-6.6550E-07	1.4584E-08	-7.7374E-08
-9.5563E-07	5.5854E-08	-1.0107E-06	9.6096E-07
-7.2548E-07	4.2481E-07	-6.9809E-07	1.0399E-06
-7.5506E-08	6.1425E-07	-5.9940E-07	1.3559E-06
2.8547E-07	4.0367E-07	-3.2125E-07	1.2058E-06
4.9058E-07	1.6989E-07	-6.2545E-08	6.9717E-07
3.8872E-07	-1.2372E-07	-1.4416E-06	5.8103E-07
3.0451E-07	-3.5915E-07	-4.7680E-07	2.0965E-06
3.6627E-10	-4.6097E-07	-3.6462E-07	7.3224E-07
-1.0071E-07	-3.8070E-07	-1.8969E-07	1.9748E-06
-2.2875E-07	-3.3323E-07	6.3351E-07	-2.6551E-07
-2.3795E-07	-2.3725E-07	-2.0259E-06	2.7280E-07
-2.7626E-07	-2.0169E-07	-1.0731E-06	1.8808E-06
-2.9878E-07	-1.7931E-07	-2.1398E-07	1.3913E-06
-3.8165E-07	-6.7898E-08	-7.5808E-07	5.9251E-07
-4.0726E-07	1.0128E-07	-1.0942E-06	1.6869E-06
-3.5873E-07	2.7986E-07	-1.5054E-07	1.0016E-06
-2.1992E-07	4.0021E-07	-1.3221E-06	7.6161E-07
-3.3658E-08	3.6845E-07	-1.6929E-06	1.6142E-06
8.4933E-08	2.5906E-07	-9.9469E-07	2.9637E-06
1.9558E-07	1.0083E-07	5.2960E-07	1.9384E-06
1.8453E-07	-1.1431E-07	-4.2089E-07	1.7035E-06
-8.5325E-09	-1.8264E-07	7.5650E-07	1.8301E-06
-1.7475E-07	-1.7897E-07	2.0687E-07	3.0620E-07
-3.7751E-07	-7.7484E-09	-1.0170E-06	7.9945E-07
-3.1513E-07	3.0443E-07	-6.8556E-07	1.7810E-06
-3.0280E-07	4.7680E-07	-1.4595E-07	1.1375E-06
-3.2276E-08	5.6808E-07	-1.0954E-06	1.5463E-06
1.9377E-07	5.1732E-07	1.2926E-07	2.1594E-06
3.1535E-07	3.5311E-07	1.4634E-08	1.0498E-06
4.2901E-07	1.3653E-07	-1.7662E-07	1.5660E-06
3.7257E-07	-7.9496E-08	6.3450E-08	8.2489E-07
2.7371E-07	-1.2941E-07	-9.9433E-07	1.4166E-06
1.1845E-07	-1.7383E-07	5.0670E-07	2.0215E-06
2.5646E-08	-8.3056E-08	2.8166E-07	2.6684E-07
4.7980E-08	-6.5339E-08	-7.5001E-07	9.1718E-07
9.9918E-08	8.5421E-10	-4.3109E-07	9.5715E-07
1.5705E-07	3.0467E-08	-6.8994E-07	1.0651E-06
1.4435E-07	-3.2316E-08	-8.3673E-07	1.0742E-06
1.5251E-07	-8.4146E-08	-6.2562E-07	1.8060E-06
9.8719E-08	-1.5273E-07	4.1889E-08	6.8267E-07
1.0960E-07	-1.4305E-07	-1.7824E-06	8.3303E-07
3.4637E-08	-1.3788E-07	-8.7595E-07	2.3225E-06
-2.3271E-08	-1.2654E-07	-5.4951E-07	1.2027E-06
-1.2522E-08	-1.1450E-07	-1.4946E-06	2.0382E-06
-5.3016E-08	-1.3818E-07	-2.7751E-07	2.4840E-06
-3.2397E-08	-1.7367E-07	-6.2817E-07	2.0156E-06
-7.8720E-08	-1.5820E-07	2.6074E-07	2.8805E-06
-1.4082E-07	-9.4168E-08	8.0688E-07	1.2913E-06
-1.0667E-07	-1.8501E-08	-1.3627E-07	1.4050E-06
-6.6400E-08	5.6482E-08	5.9424E-08	1.1159E-06
-3.2695E-08	9.7309E-08	-1.0193E-06	1.4139E-06
1.1536E-07	8.5751E-08	-2.4169E-07	2.9330E-06
1.0824E-07	1.3881E-09	1.7654E-06	1.7041E-06
1.5213E-07	-1.1023E-07	2.2180E-08	-2.2263E-07
5.8813E-08	-2.0159E-07	-7.0517E-07	1.3286E-06
-9.6214E-08	-2.4307E-07	-4.6971E-07	8.8217E-07
-1.7125E-07	-2.4356E-07	-6.7343E-07	1.5891E-06
-2.4189E-07	-9.1674E-08	-1.0364E-06	1.0808E-06
-2.3174E-07	8.1616E-08	-6.3791E-07	3.3235E-06
-1.7544E-07	1.8837E-07	1.4964E-06	8.3376E-07
1.5232E-08	2.6949E-07	-1.4462E-06	9.1698E-07
9.3688E-08	1.8505E-07	3.0607E-08	1.7116E-06
1.1004E-07	7.7504E-08	-1.4665E-06	1.2175E-06
9.5955E-08	-2.7770E-08	-5.6660E-07	2.9251E-06
1.5684E-08	-1.1215E-07	1.7174E-07	2.3202E-06
-7.0959E-08	-1.1188E-07	7.1293E-07	1.7829E-06
-2.0408E-07	-4.3614E-08	-3.9662E-07	1.1657E-06
-1.6959E-07	9.9484E-08	8.6334E-09	2.3636E-06
-8.9045E-08	1.2389E-07	5.0932E-07	1.1365E-06
5.9930E-09	1.7540E-07	-8.1463E-07	1.4291E-06
7.0919E-08	1.2720E-07	-1.4377E-07	2.4173E-06
1.1295E-07	7.8317E-08	2.8764E-07	1.9764E-06
1.0755E-07	7.7767E-09	5.7747E-07	1.9536E-06
5.5271E-08	-1.0235E-08	3.1230E-07	1.3707E-06
1.7054E-09	6.8718E-09	8.4643E-07	1.9992E-06
-4.5380E-08	4.1310E-08	6.7771E-07	-1.0981E-07
-2.8649E-09	9.4454E-08	-1.1834E-06	1.6998E-06
8.5360E-09	1.1723E-07	8.6362E-07	1.3445E-06
4.5950E-08	7.2174E-08	-8.0237E-07	1.4094E-06
1.0306E-07	4.9728E-08	1.5669E-06	1.5205E-06
1.2305E-07	-5.1974E-08	-8.9377E-07	-1.0060E-06
6.4606E-08	-1.0043E-07	-1.9680E-06	2.1397E-06
1.1327E-08	-1.1146E-07	-9.2182E-08	2.0601E-06
-6.8785E-08	-1.0335E-07	-6.5923E-07	1.5311E-06
7.5996E-10	-2.5608E-08	-3.5110E-07	2.4977E-06
-3.1779E-08	3.7731E-08	3.9073E-07	1.2090E-06
6.7565E-08	9.8835E-08	-1.6399E-06	2.0756E-06
9.3644E-08	8.5384E-08	1.0977E-06	3.4970E-06
8.6940E-08	4.3744E-08	9.6781E-07	5.6878E-07
1.0616E-07	-5.9323E-08	-4.8536E-07	1.4574E-06
8.4400E-08	-8.0444E-08	-2.3218E-07	1.5816E-06
3.1331E-08	-1.8478E-07	-3.2041E-07	2.2186E-06
-1.1243E-08	-1.1083E-07	4.3262E-07	2.0881E-06
-4.3050E-08	-1.2921E-07	4.2050E-07	1.8170E-06
-4.1082E-08	-1.1075E-07	5.8158E-07	1.4176E-06
-1.6348E-08	-5.3315E-08	-1.9580E-07	1.2562E-06
-2.2296E-09	-2.0688E-08	8.6437E-08	2.0485E-06
-1.2807E-08	-5.5952E-08	2.3755E-07	1.3699E-06
-6.1827E-08	1.1825E-08	-1.4534E-07	2.1412E-06
-1.1835E-07	-2.3346E-08	8.1320E-07	1.7872E-06
-1.4714E-07	-1.3001E-08	3.4504E-07	1.5747E-06
-1.0238E-07	3.1808E-08	7.0480E-07	1.3609E-06
-5.8451E-08	3.0024E-08	1.6146E-07	1.1883E-06
-7.8615E-09	1.0783E-07	2.6276E-08	1.2745E-06
6.2921E-08	7.4834E-08	6.8242E-08	1.9497E-06
7.7528E-08	1.2786E-08	5.1752E-07	9.4459E-07
3.2301E-08	-5.0906E-08	-1.0338E-06	2.2525E-06
1.5086E-09	-6.8252E-08	1.7376E-06	2.9009E-06
-2.0503E-08	-1.4993E-08	1.4679E-06	8.9495E-07
-1.2304E-07	-2.2837E-08	1.3539E-06	5.4941E-07
-1.1749E-07	1.5510E-08	1.1688E-08	9.0481E-08
-6.9032E-08	6.9549E-08	3.7469E-07	8.8304E-07
-3.4706E-08	1.1229E-07	-2.5705E-07	7.2601E-08
1.2026E-08	1.0027E-07	-8.3077E-07	9.3518E-07
9.8273E-08	1.1852E-07	-8.6639E-07	1.7430E-06
4.9363E-08	-1.3856E-08	5.1993E-07	2.0688E-06
8.9347E-08	-3.1600E-08	3.3358E-07	1.1107E-06
4.2162E-08	-1.7789E-08	7.5762E-07	1.3511E-06
1.2557E-08	-3.3939E-08	6.2763E-07	4.5255E-08
-5.9052E-08	2.9547E-09	-7.2097E-07	-1.3337E-07
-3.1693E-08	3.5283E-08	-1.4642E-06	1.2684E-06
-4.7983E-08	5.7814E-08	-1.6726E-07	1.4358E-06
-3.0394E-08	4.5800E-08	-1.1790E-06	1.2436E-06
-1.5085E-08	6.1671E-08	-1.2243E-07	2.2391E-06
-5.7896E-09	3.5243E-08	6.7141E-08	1.5180E-06
3.2206E-08	4.6610E-08	6.2114E-07	7.5687E-07
5.7394E-08	3.4112E-08	-1.9345E-06	4.5129E-07
2.3980E-08	3.8440E-08	-2.8568E-07	3.3231E-06
2.6223E-08	2.6979E-08	6.5700E-07	5.7305E-07
5.3673E-08	-7.4968E-09	-1.2635E-06	1.3411E-06
4.7114E-08	1.4310E-08	-4.8732E-07	2.3990E-06
3.7941E-08	-7.2008E-08	8.1453E-07	1.6708E-06
5.3461E-08	-9.7395E-08	-1.0407E-06	6.7153E-07
3.6401E-08	-8.7154E-08	-1.2683E-08	3.1224E-06
-4.8283E-08	-5.4122E-08	8.9499E-07	1.0835E-07
-4.1918E-08	-1.9752E-08	-2.0701E-06	1.4617E-06
-7.2584E-08	4.9076E-08	8.0865E-08	2.9980E-06
-4.4963E-08	3.2070E-08	4.1585E-07	1.3812E-06
1.0933E-08	5.5319E-08	-5.8525E-07	1.9350E-06
1.0279E-08	3.5820E-08	8.8664E-07	2.3087E-06
-1.2087E-08	8.3469E-09	4.1350E-07	7.3079E-07
1.8637E-08	-2.6529E-08	5.2623E-08	1.3596E-06
-3.3155E-08	-8.2125E-08	-3.2014E-07	5.1272E-07
-3.5499E-08	-7.2437E-08	-1.1112E-06	1.6514E-06
-2.3483E-08	-3.3813E-08	-6.2311E-07	1.9664E-06
-3.2259E-08	5.0643E-09	9.0237E-08	2.4924E-06
-3.4117E-08	3.4415E-08	5.8793E-07	9.8308E-07
-1.8994E-08	3.2995E-08	-1.0617E-06	9.4008E-07
-3.0809E-08	5.5891E-08	-1.4033E-06	2.4360E-06
2.3462E-08	3.8950E-08	3.4314E-07	3.2391E-06
4.0547E-08	4.0595E-08	6.9140E-07	1.5574E-06
3.3988E-09	2.7370E-08	2.3396E-07	1.8348E-06
2.0330E-08	-1.6231E-08	4.3405E-09	8.7738E-07
-2.0723E-08	-4.8465E-09	-1.0948E-06	2.0347E-06
4.4700E-08	-2.5991E-08	-3.0307E-07	2.3786E-06
-3.2116E-08	-1.5656E-08	-2.3375E-07	3.0714E-06
-3.9535E-08	-1.3898E-10	1.3283E-06	2.7369E-06
-3.7222E-08	-1.9991E-08	1.1010E-06	1.4562E-06
-7.8479E-08	2.0392E-08	1.9204E-07	1.2396E-06
-8.2947E-08	-3.0172E-10	-2.1921E-08	2.2996E-06
-8.8795E-08	7.1871E-09	1.2925E-06	2.0386E-06
-7.2332E-08	3.4818E-08	5.4787E-07	5.6790E-07
-4.0429E-09	3.3471E-08	-1.1845E-06	1.9500E-06
-1.1972E-08	3.8394E-08	1.1001E-06	3.7475E-06
4.9893E-08	6.8786E-08	2.2574E-06	1.1445E-06
2.2582E-08	4.7253E-08	4.9761E-07	1.0521E-06
6.5404E-08	5.2978E-08	1.2290E-06	1.8077E-06
2.6146E-08	-2.8661E-08	1.9699E-06	6.3507E-07
3.2650E-08	-6.0443E-09	8.1466E-07	-6.4034E-07
3.2410E-08	3.8034E-08	-7.3520E-07	-3.8189E-07
5.1810E-08	9.3887E-10	-1.7778E-06	1.6845E-06
3.2173E-08	-1.2559E-08	1.4231E-06	2.6877E-06
3.2811E-08	-1.4932E-08	5.2282E-07	-7.7831E-07
1.0433E-08	1.8397E-08	-1.1056E-06	1.6633E-06
2.9403E-08	-5.3122E-08	5.4263E-07	1.0920E-06
-5.0150E-09	-9.8896E-08	-4.5358E-08	1.0550E-06
3.5274E-08	-3.9624E-08	-3.6209E-07	1.9919E-07
4.6487E-09	2.2264E-08	-1.2715E-06	2.1221E-06
3.3868E-09	-1.1617E-09	6.4023E-07	1.4792E-06
-1.7517E-08	-4.9953E-08	-4.7010E-07	1.6404E-06
-5.3750E-09	1.4305E-08	1.1056E-06	1.2070E-06
-1.0296E-07	1.0797E-08	-5.0883E-07	2.9815E-07
-6.3030E-08	-3.0196E-08	-4.5239E-07	1.1035E-06
-3.5544E-08	-3.7343E-08	-8.4024E-07	1.3470E-06
-5.2452E-08	-5.3735E-08	-9.7630E-08	1.4909E-06
-8.6329E-08	-8.9572E-08	-7.7003E-07	1.3462E-06
-2.3392E-08	-3.2485E-08	-6.5544E-08	1.7548E-06
-2.7920E-08	2.2100E-08	-6.8182E-07	1.2238E-06
-1.9143E-08	8.1536E-09	-5.4479E-07	2.3461E-06
-4.2084E-10	-2.6983E-08	5.5913E-07	2.2044E-06
-3.6763E-08	-1.3096E-08	8.4863E-07	9.2170E-07
3.2774E-08	4.1379E-08	-6.3369E-07	6.9329E-07
-2.9850E-08	-2.3676E-08	-2.8841E-07	1.8623E-06
7.6835E-09	6.7205E-09	4.3851E-07	9.2309E-07
3.3126E-08	2.9445E-08	-1.1423E-06	1.6014E-07
-4.7059E-08	-5.7180E-09	-2.0000E-06	2.4167E-06
-5.7425E-08	1.5971E-08	2.1491E-07	2.7025E-06
-2.9211E-10	-5.1108E-09	-3.8090E-07	1.6833E-06
