jMRUI Data Textfile

Filename: Export_to_jmrui.txt

PointsInDataset: 2048
DatasetsInFile: 1
SamplingInterval: 0.250000
ZeroOrderPhase: 0E0
BeginTime: 0E0
TransmitterFrequency: 1.2326E8
MagneticField: 2.8936E0
TypeOfNucleus:  
NameOfPatient:  
DateOfExperiment:  
Spectrometer:  
AdditionalInfo: 
SignalNames:  


Signal and FFT
sig(real)	sig(imag)	fft(real)	fft(imag)
Signal 1 out of 1 in file
2.4559E-06	1.9266E-06	-1.1316E-06	1.4448E-06
3.5433E-06	4.8211E-07	-5.8109E-07	1.3516E-06
2.5851E-06	-1.2885E-06	5.1367E-07	4.7862E-07
1.7790E-06	-2.2772E-06	-1.7533E-06	-2.7942E-07
3.8615E-07	-2.5750E-06	-8.0241E-07	1.8162E-06
-7.6450E-07	-1.9918E-06	-8.6451E-07	4.2666E-08
-1.5666E-06	-1.0595E-06	-1.7425E-06	1.6045E-06
-1.3822E-06	3.3186E-08	-1.0018E-06	1.4577E-06
-8.8370E-07	5.6299E-07	-9.6854E-07	2.3232E-06
-1.5271E-07	7.6714E-07	2.3578E-07	1.4945E-06
4.1249E-07	5.3105E-07	-9.5152E-07	1.0612E-06
7.6614E-07	1.5123E-07	-8.0690E-07	2.1644E-06
6.8912E-07	-2.7641E-07	2.1077E-07	1.9499E-06
4.2957E-07	-6.1576E-07	-6.4517E-08	1.0740E-06
6.1186E-08	-7.1513E-07	-5.1150E-07	1.4802E-06
-1.9715E-07	-6.7163E-07	-1.8055E-07	1.3547E-06
-3.6148E-07	-5.6949E-07	-6.9847E-07	1.2377E-06
-4.3630E-07	-4.7500E-07	-7.2941E-07	1.7591E-06
-5.3083E-07	-3.3299E-07	-6.7423E-07	1.8360E-06
-4.8770E-07	-1.1690E-07	-5.3158E-07	2.4832E-06
-5.4317E-07	7.4390E-09	4.2520E-07	2.2357E-06
-4.5156E-07	2.5394E-07	6.3684E-08	1.7436E-06
-4.5167E-07	3.9441E-07	3.5411E-07	2.0552E-06
-2.4363E-07	5.5353E-07	3.8542E-07	1.3966E-06
-3.3503E-08	4.8962E-07	-1.3209E-07	1.7458E-06
2.3802E-07	2.7368E-07	4.9919E-07	2.0079E-06
2.4148E-07	4.0807E-08	6.0363E-07	1.4502E-06
2.3478E-07	-1.4619E-07	6.0280E-07	1.3126E-06
-3.9158E-08	-2.8909E-07	2.5609E-08	7.6795E-07
-2.5273E-07	-1.7949E-07	-1.8924E-07	1.9714E-06
-5.0653E-07	3.1970E-08	9.1215E-07	1.0699E-06
-5.5446E-07	2.9880E-07	-4.4695E-07	1.2029E-06
-4.3847E-07	5.2613E-07	9.7322E-07	1.3645E-06
-1.4907E-07	6.9421E-07	-6.4758E-07	-9.7168E-08
1.9914E-07	6.3270E-07	-1.1885E-06	2.0627E-06
4.1421E-07	4.4690E-07	1.3588E-07	1.9691E-06
5.0784E-07	2.1438E-07	-1.0704E-07	1.4565E-06
5.3022E-07	-3.1476E-09	-4.4869E-07	2.2166E-06
2.8909E-07	-1.4219E-07	1.2476E-06	2.2701E-06
2.3697E-07	-1.3350E-07	5.3627E-07	2.9909E-07
9.1316E-08	-7.1558E-08	-6.0208E-07	1.4227E-06
1.0800E-07	-2.5193E-08	3.0756E-08	1.5443E-06
7.6410E-08	-3.8532E-08	-2.2765E-07	1.6241E-06
1.4681E-07	-6.3979E-08	3.5168E-08	1.9329E-06
1.6835E-07	-1.3663E-07	5.3487E-07	1.7713E-06
1.4138E-07	-2.0369E-07	2.7645E-07	1.2184E-06
2.0797E-08	-2.0627E-07	1.1198E-07	1.5607E-06
-4.9839E-08	-2.0241E-07	1.6931E-07	1.3320E-06
-1.4620E-08	-1.1852E-07	4.9121E-08	1.6442E-06
-1.6271E-08	-6.2467E-08	3.2332E-07	1.3744E-06
5.8466E-08	-1.0244E-07	-1.5072E-07	1.5623E-06
2.9787E-08	-6.9683E-08	7.1531E-07	2.0501E-06
1.8767E-09	-1.3694E-07	1.1861E-06	3.6670E-07
-2.0315E-08	-2.0024E-07	-1.1277E-06	5.1035E-08
-1.8928E-07	-1.5193E-07	-1.1740E-06	2.1406E-06
-2.1130E-07	-6.9992E-08	-2.7507E-07	2.2096E-06
-1.6342E-07	2.4226E-08	1.7060E-07	2.5821E-06
-5.5701E-08	1.6014E-07	1.0967E-06	2.0697E-06
5.8678E-08	1.3511E-07	1.1597E-06	1.0126E-06
1.3107E-07	9.7552E-08	-2.1504E-07	6.2076E-07
1.7127E-07	-6.1197E-08	2.9713E-07	2.1567E-06
1.4744E-07	-1.9729E-07	1.0466E-06	1.3785E-07
-3.4494E-08	-2.5793E-07	-1.3448E-06	7.8563E-07
-1.7682E-07	-2.1487E-07	-1.4408E-07	1.9017E-06
-2.8482E-07	-5.6842E-08	-4.3862E-07	1.6967E-06
-3.0455E-07	8.1174E-08	8.1373E-07	1.9884E-06
-1.9099E-07	1.7264E-07	9.8998E-08	3.4048E-07
-9.3230E-09	2.7577E-07	-7.9306E-07	1.4473E-06
1.1403E-07	2.1490E-07	-4.4830E-07	1.6434E-06
1.1692E-07	1.0852E-07	-1.5055E-07	2.1027E-06
9.5773E-08	-8.5373E-08	1.5332E-07	1.5334E-06
-7.4077E-09	-1.0533E-07	3.4088E-08	1.7971E-06
-9.1703E-08	-1.5000E-07	6.4444E-08	1.0121E-06
-2.1802E-07	8.7371E-09	-9.1440E-07	2.0647E-06
-2.1918E-07	1.1562E-07	7.9876E-07	2.0351E-06
-1.2061E-07	2.0101E-07	-5.2709E-07	9.7275E-07
-3.2610E-08	2.0562E-07	-3.4638E-07	2.6479E-06
1.3645E-07	1.5815E-07	6.5667E-07	2.1001E-06
1.9304E-07	4.2899E-08	1.0465E-06	1.6924E-06
1.8193E-07	-4.8661E-08	2.6447E-07	1.4906E-07
8.7629E-08	-4.1259E-08	-1.3719E-06	1.9647E-06
2.1127E-08	-4.8026E-08	1.1497E-06	2.6027E-06
-3.9046E-08	3.4963E-08	7.1959E-07	1.3582E-07
-1.1600E-08	1.3220E-07	-1.3491E-06	1.0724E-06
1.4555E-08	1.7011E-07	-1.9133E-08	2.7461E-06
7.8505E-08	7.2350E-08	8.8569E-07	6.2350E-07
1.7697E-07	-1.7165E-08	-1.8644E-06	1.1893E-06
8.9873E-08	-8.2381E-08	6.5051E-08	3.4327E-06
2.5139E-08	-1.4058E-07	9.2826E-07	1.6018E-06
-3.8293E-08	-1.7027E-07	6.9236E-07	1.5731E-06
-6.6719E-08	-1.2706E-07	3.4534E-07	4.0734E-07
-6.3030E-08	9.1770E-09	-6.2360E-07	1.1543E-06
-2.0073E-08	9.1312E-08	-4.3397E-07	8.8314E-07
4.7623E-08	9.5020E-08	-1.5147E-06	1.6440E-06
1.4642E-07	7.6805E-08	-4.8796E-07	2.6736E-06
1.9314E-07	4.5500E-08	1.3260E-07	1.8962E-06
1.4761E-07	-4.3125E-08	-6.5832E-07	2.0067E-06
1.2425E-07	-9.2754E-08	7.5363E-07	2.7337E-06
3.2645E-08	-1.6480E-07	4.3419E-07	2.4116E-07
-1.1795E-08	-1.6707E-07	-1.6199E-06	2.0482E-06
-4.7610E-08	-1.2484E-07	4.7847E-07	2.4341E-06
-7.5178E-08	-1.0738E-07	-1.8226E-07	1.4147E-06
-7.9913E-08	-2.8860E-08	-4.8755E-07	1.7488E-06
-7.0100E-08	-2.6473E-08	-4.0994E-07	2.6671E-06
-8.8305E-08	-1.0781E-07	1.1755E-06	1.5760E-06
-9.8454E-08	-8.6088E-08	-1.0764E-06	6.1739E-07
-8.0735E-08	1.0481E-08	-8.5366E-07	2.4424E-06
-1.1692E-07	2.5545E-09	-6.2030E-07	2.0024E-06
-8.7831E-08	9.6421E-08	-4.4265E-07	2.4877E-06
-2.1021E-09	1.4138E-07	-8.8246E-07	2.2584E-06
4.4302E-08	1.4140E-07	-2.0981E-07	3.9258E-06
1.0274E-07	9.2108E-08	1.5894E-06	2.5217E-06
1.3321E-07	-1.5257E-08	5.2749E-07	1.4897E-06
1.0218E-07	-5.4211E-08	1.3305E-07	1.5762E-06
-1.4840E-08	-6.8138E-08	-4.4663E-07	1.8022E-06
-9.7056E-08	-1.2948E-07	-3.9854E-07	2.5200E-06
-1.4655E-07	-8.6568E-08	4.1016E-07	2.9169E-06
-1.3747E-07	-1.3953E-08	1.0329E-06	1.8621E-06
-6.7799E-08	7.8043E-08	1.5893E-07	1.6926E-06
2.4424E-08	1.5323E-07	6.0919E-07	1.4242E-06
2.8897E-08	7.1683E-08	-1.0054E-06	1.1281E-06
1.1783E-07	6.4182E-08	-6.5454E-07	2.6799E-06
1.2518E-07	-2.9572E-09	-7.7788E-07	2.7840E-06
5.1463E-08	-7.4063E-08	1.3704E-06	4.1029E-06
3.0512E-08	-1.1872E-07	1.6683E-06	4.6704E-07
-4.3485E-08	-5.7427E-08	-6.2950E-07	2.0127E-06
-1.2186E-07	-4.6348E-09	8.1881E-07	1.2511E-06
-8.3043E-08	4.4441E-08	-1.3454E-06	1.7657E-06
-3.0102E-08	1.0318E-07	3.2291E-08	2.6666E-06
-1.9482E-08	8.7375E-08	-4.1099E-07	2.8312E-06
4.3597E-08	2.5789E-08	1.3210E-06	2.6120E-06
4.3992E-08	4.8783E-08	-2.2105E-07	1.5985E-06
2.0934E-08	2.8538E-08	5.5036E-07	2.9258E-06
6.7542E-08	4.7926E-08	5.4888E-07	1.8593E-06
1.9024E-08	3.4673E-08	6.7738E-07	2.3565E-06
6.5805E-09	2.0721E-08	5.3812E-07	1.5473E-06
1.1414E-07	6.3294E-09	2.3074E-07	2.1521E-06
1.0498E-07	-3.7343E-09	6.0975E-07	1.9738E-06
7.3054E-08	-1.0367E-07	7.3304E-07	1.8750E-06
-1.3447E-08	-8.7694E-08	7.2486E-07	1.1644E-06
-5.3518E-08	-6.5471E-08	-3.7506E-07	8.9999E-07
-9.0921E-08	-8.8272E-08	-1.0011E-06	2.2796E-06
-1.0965E-07	-5.3959E-08	5.1085E-07	2.8560E-06
-1.1924E-07	2.4016E-08	6.1658E-07	1.6133E-06
-4.4263E-08	7.7287E-08	4.1681E-08	2.0663E-06
-3.6307E-09	4.9821E-08	9.9092E-07	1.6523E-06
3.2582E-08	-9.2077E-09	-6.5417E-07	6.5377E-07
3.6679E-08	4.2954E-09	-7.0785E-07	2.9479E-06
4.1071E-08	-2.9626E-08	4.5289E-07	1.8087E-06
2.3718E-08	-4.0957E-08	-1.5865E-07	3.0103E-06
-9.2414E-09	-8.0809E-08	2.0546E-06	1.1755E-06
-1.6739E-08	-5.2380E-08	-1.2756E-06	5.2007E-07
-9.7549E-08	-2.0190E-08	-7.3725E-08	2.2364E-06
-9.3216E-08	2.0457E-08	-9.6064E-07	1.3802E-06
-1.2122E-08	6.9609E-08	-3.9740E-07	2.3524E-06
2.7550E-08	1.1055E-07	-1.4697E-06	2.0382E-06
2.6052E-08	1.0103E-07	-1.8450E-07	3.8304E-06
3.3245E-08	2.0023E-08	4.1931E-08	2.3802E-06
5.1093E-08	1.4049E-08	3.0253E-07	3.3100E-06
3.0311E-08	-1.9816E-08	3.3597E-07	2.1120E-06
4.1458E-08	-7.0373E-08	2.5491E-07	3.2090E-06
-1.7721E-08	-2.4253E-08	8.7063E-07	2.2033E-06
-1.1061E-09	-6.7492E-08	7.6665E-07	2.6291E-06
-2.9248E-08	1.9365E-08	9.2428E-07	8.2426E-07
-5.0585E-08	2.4685E-08	-1.7904E-06	2.1473E-06
-6.0219E-08	2.2846E-08	9.4456E-07	4.2636E-06
1.0568E-09	5.5532E-08	1.4170E-06	8.9811E-07
-5.6662E-08	3.2676E-08	-1.3921E-06	2.6277E-06
-9.1096E-09	5.0010E-08	1.8159E-06	3.4608E-06
4.1518E-08	8.5541E-08	1.1481E-06	6.0355E-07
-1.1647E-08	5.9914E-08	-1.1086E-06	2.3079E-06
6.4578E-08	4.6190E-08	-7.5810E-08	3.3125E-06
4.0129E-08	4.5968E-08	1.8736E-06	3.2341E-06
6.9901E-08	1.7300E-08	7.0569E-07	7.0613E-07
3.8831E-08	-1.8621E-08	2.2212E-07	3.1249E-06
1.9533E-08	-2.3685E-08	1.5361E-06	6.1592E-07
2.0804E-08	2.1172E-08	-1.8079E-06	1.8753E-06
3.6437E-08	-5.5190E-10	5.3297E-07	3.8573E-06
4.7262E-08	-8.4471E-09	1.4907E-06	2.6132E-06
9.3127E-09	-1.5342E-08	1.4059E-06	1.3441E-06
3.2861E-08	-2.0468E-08	4.4131E-08	1.6340E-06
8.1859E-09	-3.7411E-09	9.2037E-07	1.7542E-06
4.4389E-08	-3.2454E-08	-4.8483E-07	1.2568E-06
2.9926E-08	-5.0172E-08	1.2291E-07	3.0238E-06
-6.3586E-09	-3.7199E-08	1.1379E-06	1.6782E-06
1.0655E-08	-8.7236E-08	-1.2786E-07	1.5045E-06
-3.3142E-08	-5.4573E-08	1.6008E-08	2.1938E-06
4.7730E-09	-1.6887E-08	4.1859E-08	2.1692E-06
-3.5194E-09	1.0034E-08	2.8644E-07	2.7048E-06
-1.9141E-08	-2.5243E-09	1.1840E-06	2.1822E-06
-7.5434E-08	1.7299E-08	3.8401E-07	1.3468E-06
-2.4048E-08	6.2596E-09	3.5807E-07	2.2585E-06
-7.6236E-08	4.9815E-09	7.6011E-07	8.6359E-07
-5.5082E-08	5.3672E-09	-1.6549E-06	1.7140E-06
-4.8180E-08	1.0626E-08	2.9135E-07	3.7371E-06
-7.2616E-08	2.5027E-08	9.0411E-07	1.9528E-06
-7.2136E-08	4.1372E-08	1.9322E-07	2.3416E-06
-7.1671E-09	-1.6466E-09	6.6108E-07	2.5464E-06
-1.4761E-09	-3.5554E-10	1.2370E-06	2.1369E-06
-1.3173E-09	-2.0199E-08	8.1668E-07	1.6748E-06
3.7338E-09	7.7765E-09	1.4456E-06	1.2027E-06
1.1335E-08	4.0940E-09	-7.7605E-07	1.7170E-07
5.9279E-08	1.3843E-08	-4.0079E-07	2.9338E-06
-2.5313E-08	3.9091E-08	5.0679E-07	1.1255E-06
-6.1008E-09	-1.4274E-08	-5.9141E-07	2.3184E-06
-5.1603E-08	2.1480E-08	1.6920E-07	1.7053E-06
