jMRUI Data Textfile

Filename: Export_to_jmrui.txt

PointsInDataset: 2048
DatasetsInFile: 1
SamplingInterval: 0.250000
ZeroOrderPhase: 0E0
BeginTime: 0E0
TransmitterFrequency: 1.2326E8
MagneticField: 2.8936E0
TypeOfNucleus:  
NameOfPatient:  
DateOfExperiment:  
Spectrometer:  
AdditionalInfo: 
SignalNames:  


Signal and FFT
sig(real)	sig(imag)	fft(real)	fft(imag)
Signal 1 out of 1 in file
1.2505E-06	4.4372E-07	1.1812E-06	9.4523E-07
1.7919E-06	-7.9985E-08	5.3384E-07	-1.6035E-06
1.3445E-06	-8.3898E-07	-1.1959E-06	-3.4027E-07
9.6279E-07	-1.2330E-06	-4.5096E-07	5.2073E-07
2.5769E-07	-1.3599E-06	3.5522E-07	5.3701E-07
-3.0432E-07	-1.1403E-06	3.3373E-07	-7.0583E-07
-6.1496E-07	-6.6151E-07	-9.4671E-07	-3.4433E-09
-5.7043E-07	-1.8600E-07	3.5943E-07	7.6789E-07
-3.0551E-07	1.4789E-07	6.5719E-07	-8.5665E-07
-1.6444E-08	1.9323E-07	-1.0861E-06	-1.2050E-06
2.0314E-07	1.0436E-07	-2.0403E-06	4.4652E-07
2.8668E-07	-8.1945E-08	-4.5559E-07	2.0561E-06
2.4629E-07	-2.9830E-07	9.8132E-07	2.2761E-07
8.7962E-08	-3.0626E-07	-9.1046E-07	9.4867E-09
-3.9282E-08	-3.3916E-07	-8.4105E-08	1.0077E-06
-9.8506E-08	-3.3863E-07	-5.1952E-07	6.1018E-07
-1.1498E-07	-2.5785E-07	3.9366E-07	1.7920E-06
-1.6540E-07	-1.6733E-07	1.5580E-06	3.3036E-07
-2.0768E-07	-2.5299E-07	4.2066E-07	-1.0355E-06
-2.5640E-07	-2.1741E-07	-1.2534E-06	1.6249E-07
-3.1352E-07	-8.8020E-08	3.4003E-07	1.0807E-06
-3.6866E-07	-4.4632E-09	-2.2243E-07	1.8991E-07
-2.7676E-07	9.7544E-08	4.9782E-07	9.8937E-07
-1.0508E-07	2.4049E-07	-5.7832E-08	-6.5727E-08
-1.1418E-08	2.1804E-07	3.9343E-07	1.2952E-06
9.0152E-08	1.8392E-07	8.9585E-07	-1.6217E-07
1.2213E-07	-1.9750E-08	4.2549E-07	1.3840E-07
7.7883E-08	-8.8796E-08	1.5321E-07	-6.2286E-07
-1.5018E-08	-2.0482E-07	-3.0226E-07	1.4191E-07
-1.9458E-07	-1.4104E-07	-4.4007E-07	-5.7226E-08
-3.2457E-07	2.5718E-08	-7.5386E-08	8.0455E-07
-3.3457E-07	2.3861E-07	-2.9843E-07	-6.4393E-08
-2.0893E-07	3.2298E-07	1.5552E-07	1.3376E-06
2.7007E-09	4.2744E-07	3.8539E-07	-7.5960E-07
2.0170E-07	4.2189E-07	-8.7585E-07	1.2358E-06
2.4831E-07	2.6194E-07	9.7186E-07	-1.8622E-07
3.1896E-07	1.2605E-07	-1.5635E-06	6.7298E-07
2.4209E-07	-4.8094E-08	1.1098E-06	1.6264E-06
6.6965E-08	-1.4094E-07	2.9546E-07	1.3689E-07
-2.3123E-08	-1.5329E-07	1.2364E-06	7.2497E-07
-5.2073E-08	-1.1302E-07	4.1348E-07	-1.1881E-06
-3.6646E-08	2.7897E-08	-4.7220E-07	3.0752E-07
-2.8907E-08	5.9137E-08	3.7914E-07	-5.2017E-07
9.5998E-08	2.8805E-08	-1.3461E-06	-1.2948E-07
1.3951E-07	1.9365E-08	-1.3890E-07	9.5114E-07
1.8332E-07	-3.7797E-08	-5.7290E-07	1.0036E-07
1.0994E-07	-1.4160E-07	-1.7462E-07	1.1558E-06
7.6958E-08	-1.6779E-07	-2.0482E-07	4.7819E-08
3.1870E-09	-1.6905E-07	-6.1627E-07	1.4873E-06
-8.5003E-09	-7.0339E-08	1.0168E-06	8.4419E-07
-3.6288E-08	-1.3603E-07	2.8188E-07	-4.0814E-07
-5.5513E-08	-7.0864E-08	-1.3660E-06	-1.2038E-08
-6.0252E-08	-8.5328E-08	-6.3589E-07	2.1494E-06
-8.2462E-08	3.8953E-09	6.8332E-07	1.1867E-06
-1.1419E-07	-7.2859E-08	1.0026E-06	1.2026E-06
-1.2186E-07	-7.7456E-10	6.0707E-07	-8.6152E-07
-3.4396E-08	3.6427E-08	-1.1151E-06	1.3690E-06
2.4120E-08	7.1141E-08	1.5811E-06	7.2514E-07
3.0958E-08	3.9273E-08	-5.0402E-07	-2.5511E-07
7.5164E-08	-5.0252E-08	-1.0105E-07	9.4042E-07
7.8553E-08	-9.3894E-08	-2.7632E-08	1.2383E-06
5.4824E-08	-1.5008E-07	1.4010E-06	4.7501E-07
-1.2594E-08	-2.1940E-07	-7.9106E-07	-4.0999E-07
-1.1713E-07	-1.3575E-07	-1.5384E-07	1.7968E-06
-1.9398E-07	-4.0126E-08	6.0459E-07	5.9350E-07
-2.3870E-07	1.0200E-07	-7.0701E-08	1.2311E-06
-1.5647E-07	1.5428E-07	1.1544E-06	1.4820E-06
-4.6301E-08	2.0429E-07	1.3774E-06	2.7265E-07
-4.7380E-08	1.3510E-07	6.9240E-07	2.2831E-07
8.1960E-09	5.6013E-08	8.9214E-07	2.9748E-08
7.2988E-09	5.5832E-09	1.3239E-07	1.8878E-08
-2.6883E-08	-3.8070E-08	5.0615E-07	6.5231E-07
-7.4093E-08	-7.1026E-08	9.2076E-07	2.5557E-07
-1.4847E-07	-3.3447E-09	6.4559E-07	-2.8394E-07
-1.5166E-07	1.0852E-07	2.6107E-07	2.2147E-07
-8.3040E-08	1.0854E-07	1.0022E-06	-3.0396E-07
-4.7813E-08	1.3752E-07	-3.1922E-07	-6.4038E-07
5.6382E-08	1.3033E-07	2.8120E-08	3.8907E-07
5.3745E-08	2.0090E-08	3.2150E-07	3.5320E-08
1.0612E-07	9.0326E-09	6.2609E-07	-4.5740E-07
4.5962E-09	-4.4661E-08	-8.9496E-07	-1.0725E-06
-2.7293E-08	-3.0816E-08	-1.0874E-06	7.4594E-07
-2.5686E-08	3.7781E-08	-4.4642E-07	6.9799E-07
-4.5475E-08	1.1348E-07	3.0242E-07	1.5736E-06
3.3745E-08	8.1502E-08	1.5857E-06	-4.0978E-07
2.6553E-08	1.1456E-07	-6.0132E-07	-1.0762E-06
8.0373E-08	5.9714E-08	-9.8070E-07	-1.6992E-07
4.0425E-08	-1.2397E-08	-1.4893E-06	1.0770E-06
5.3850E-08	-6.0175E-08	1.0358E-06	1.4678E-06
3.5636E-08	-7.5604E-08	-7.4635E-08	-1.3788E-06
-3.3861E-08	-5.4796E-08	-2.0789E-06	6.6851E-07
-7.0439E-08	1.8709E-08	-9.3563E-07	1.9329E-06
-5.6739E-08	4.2950E-08	6.6456E-07	2.4093E-06
1.6892E-08	3.8234E-08	1.4815E-06	2.0675E-07
6.5659E-09	5.2907E-08	-1.0563E-07	4.8604E-07
1.2754E-07	1.4922E-08	1.0473E-06	3.5651E-07
6.8515E-08	-3.9073E-08	-1.8198E-07	-4.9948E-07
3.3030E-08	-7.9208E-08	-4.2910E-07	2.7686E-07
3.7572E-08	-9.0139E-08	-6.6104E-07	5.7048E-07
-2.8509E-08	-5.6665E-08	1.8722E-08	1.1430E-06
-2.8188E-08	-8.1790E-08	4.5164E-07	3.3983E-07
-2.1274E-08	-4.9170E-08	-4.8272E-07	-1.1914E-07
-2.8707E-08	-4.4392E-08	-7.2876E-07	1.2194E-06
2.3240E-08	-7.8781E-08	4.6074E-07	3.6827E-07
-1.5089E-08	-7.0321E-08	-1.5220E-06	6.5648E-07
-2.7110E-08	-4.9727E-08	5.5055E-07	2.1448E-06
-6.8330E-08	-2.1340E-08	-2.8193E-08	-6.1435E-08
-9.8454E-08	3.7032E-09	-5.0982E-07	1.9887E-06
-8.2273E-08	4.8789E-08	8.7146E-07	9.6413E-07
-5.0057E-08	9.3012E-08	2.7773E-07	1.2597E-06
1.3840E-08	1.3697E-07	1.0767E-06	3.0464E-07
1.6393E-08	6.7927E-08	-4.4947E-07	4.4319E-07
9.6927E-08	3.7863E-08	3.1822E-07	9.9450E-07
5.2281E-08	-2.6173E-08	-1.7149E-07	9.9185E-07
-2.2960E-08	-4.4345E-08	9.4352E-07	1.1903E-06
-3.9203E-08	-4.3483E-08	-1.6956E-07	1.0996E-07
-8.0526E-08	-6.3740E-08	-1.5847E-07	2.3205E-06
-6.1425E-08	-8.4040E-09	2.3522E-06	1.3967E-06
-9.3859E-08	8.5854E-08	1.2306E-06	-8.7947E-07
-2.0170E-08	3.1050E-08	-6.1557E-07	2.1499E-07
3.8701E-08	8.4066E-08	5.7700E-07	1.6438E-06
4.1144E-08	6.6636E-08	1.8664E-06	4.0806E-07
7.1121E-08	3.1728E-08	6.3811E-07	-9.6234E-07
7.3469E-08	-3.0210E-08	-3.7696E-07	4.4383E-07
3.4222E-08	-2.9827E-08	1.0974E-06	3.5673E-07
2.5081E-08	-2.8715E-08	1.1211E-07	-4.7802E-07
-1.6419E-08	2.4637E-08	3.4770E-07	9.8466E-08
-2.4907E-08	-2.6285E-08	-2.0439E-07	-6.0687E-07
-7.1401E-08	3.6017E-08	-5.8229E-07	1.1487E-07
-1.3507E-08	1.6426E-08	-9.1411E-07	3.4054E-07
-1.8945E-08	3.6684E-08	-1.8627E-07	1.4224E-06
1.9168E-09	4.8061E-08	5.5401E-07	2.9142E-07
4.8826E-08	8.4640E-08	-4.5568E-07	-1.9151E-07
4.0659E-08	6.4207E-08	-1.7006E-06	1.0283E-06
6.6021E-08	3.2712E-08	5.6606E-07	2.9082E-06
5.1850E-08	3.2800E-08	1.5087E-06	-9.1526E-09
8.8107E-08	-3.1096E-08	-2.8931E-07	8.4871E-07
7.3735E-08	-7.2583E-08	1.3239E-06	4.0391E-07
1.1541E-08	-7.2976E-08	-6.2440E-07	-5.1276E-07
1.4621E-09	-1.0381E-07	-6.8267E-07	1.5258E-06
1.8074E-09	-6.8469E-08	8.8944E-07	1.4803E-06
2.7696E-08	-2.3811E-08	1.1978E-06	1.2982E-07
-4.2175E-08	-4.1984E-08	-2.1794E-07	-4.5973E-07
-2.9255E-08	2.5883E-08	-8.2243E-07	1.1105E-06
-2.5333E-08	2.1540E-09	6.9277E-07	1.3513E-06
3.2359E-09	1.7749E-09	3.4098E-07	5.1349E-07
-1.6984E-09	-5.8567E-09	5.6696E-07	1.1017E-06
3.7015E-08	9.8369E-09	8.6237E-07	4.7623E-07
5.9516E-08	-2.7127E-08	7.9410E-07	2.8315E-07
-9.2894E-09	-4.0121E-08	1.7516E-07	1.6648E-07
-2.8191E-09	2.0511E-08	1.2048E-06	7.6632E-07
-2.6242E-08	-7.3214E-09	6.2734E-07	-1.4501E-06
-4.0210E-08	1.7255E-08	-1.0857E-06	3.2104E-07
-5.8207E-08	3.4436E-08	4.6825E-07	5.1491E-07
-4.8012E-08	4.5753E-08	1.7998E-07	-5.9964E-08
-1.3164E-08	2.5171E-09	-2.6549E-07	-4.5716E-07
3.3191E-08	7.3878E-08	-8.0714E-07	4.4013E-07
2.7946E-08	1.1140E-08	-4.9262E-07	2.4304E-07
-4.9715E-09	-1.4570E-08	-7.1302E-07	1.3994E-06
5.5541E-09	-4.9988E-08	8.1983E-07	3.8849E-07
-1.8987E-08	7.7128E-09	-1.0535E-06	6.9594E-08
2.7937E-09	8.6998E-09	-5.0030E-07	1.4000E-06
9.7525E-09	-1.9093E-08	9.2861E-08	1.5276E-06
8.2479E-09	1.8250E-08	1.0923E-06	6.4296E-07
2.1584E-08	-1.4558E-08	-3.5433E-07	7.9912E-08
9.2890E-09	-5.4382E-08	1.0577E-07	1.2171E-06
-3.3511E-08	-7.2250E-09	5.4771E-07	5.9838E-07
-5.1323E-08	-3.9680E-08	4.9058E-07	1.9034E-07
-3.0975E-08	-2.3133E-08	-2.9749E-07	2.0299E-08
-3.7601E-08	3.2129E-08	-3.1523E-07	7.2439E-07
2.3555E-09	7.4058E-08	-5.7479E-08	9.6776E-07
6.6032E-08	3.8657E-08	9.3499E-07	8.0909E-07
3.6360E-08	5.0045E-08	4.8139E-07	-9.4434E-07
3.2878E-09	-2.2214E-08	-1.6842E-06	-1.9259E-07
4.1753E-08	1.0948E-08	-6.2921E-07	1.8383E-06
2.8718E-08	1.9367E-08	5.6850E-07	4.7003E-07
4.1701E-08	-3.5025E-08	-6.1680E-07	3.0013E-07
5.7736E-08	-5.0042E-09	-6.1750E-07	6.5155E-07
1.4967E-08	8.2408E-09	-8.8669E-07	1.4425E-06
5.5132E-08	-4.1684E-08	3.1488E-07	1.4385E-06
1.4929E-08	-2.8779E-08	-1.8873E-07	1.0711E-06
3.5491E-08	-7.0288E-08	4.6603E-07	1.4003E-06
3.7043E-08	-5.6155E-08	4.0027E-07	9.2808E-07
5.0788E-08	-5.1608E-08	8.6757E-07	5.9541E-07
1.0281E-08	-4.7443E-08	-3.3610E-07	-5.4261E-08
-8.8123E-09	-7.8151E-08	-2.1841E-07	1.1121E-06
-1.4528E-08	-5.3180E-08	-3.9354E-07	5.5304E-07
3.4675E-08	-8.3771E-09	-4.0246E-07	2.2359E-06
-2.3889E-08	-2.5061E-08	1.8667E-06	1.5325E-06
-4.1394E-08	-4.9479E-08	1.2614E-06	-4.8093E-07
-6.8927E-09	-2.9598E-08	-2.5662E-07	-7.2182E-07
-3.0503E-08	-3.1469E-08	-1.4551E-06	3.2835E-07
-3.5464E-08	-3.8517E-08	-7.7141E-07	2.2017E-06
-2.3081E-08	1.6061E-09	1.3234E-06	1.5615E-06
-1.3611E-08	3.3838E-09	3.0821E-07	-1.1553E-07
2.1966E-08	2.0293E-08	-3.6297E-07	1.3307E-06
-2.0164E-08	5.7361E-08	1.0373E-06	9.4456E-07
1.6326E-08	1.4707E-08	2.0200E-07	1.9315E-07
3.5067E-08	4.8200E-08	2.6579E-07	7.2117E-07
-9.9138E-09	3.6374E-08	2.2213E-07	2.3011E-07
1.0961E-08	2.2654E-08	-1.7306E-07	5.7007E-07
3.9931E-08	3.0428E-08	2.2401E-07	5.7856E-07
-3.4778E-08	-4.8153E-10	-4.0970E-07	8.4654E-09
-6.5140E-09	-1.1397E-08	-1.0558E-06	1.7564E-06
